59.40817283
-84.13477692
-274.9021241
-525.4225653
-802.4298024
-1046.008989
-1203.568017
-1257.645368
-1229.505466
-1159.676898
-1082.674168
-1013.534708
-951.7194416
-892.30454
-832.4983271
-770.5425201
-701.4588618
-617.2682762
-512.3668016
-391.2852159
-271.6977904
-176.3378574
-118.4130204
-92.85365237
-82.6419636
-78.62363839
-91.58484361
-146.0353049
-258.7980581
-419.1860962
-585.5282079
-703.4219917
-737.1906641
-692.1604066
-609.6099984
-538.9434092
-507.0489218
-504.1596377
-493.1398063
-436.76013
-329.3924143
-212.2020737
-157.2703776
-224.3967083
-420.7459107
-691.0134079
-945.9709852
-1106.71194
-1138.811545
-1059.143763
-918.9474796
-774.6378607
-663.9558632
-598.1365932
-570.1871592
-570.4890942
-597.5281392
-654.9251963
-736.6948813
-813.4288371
-836.2384023
-761.5185905
-581.4421562
-337.7893138
-106.9338773
34.85841614
45.48387475
-67.33445899
-256.6762802
-463.9935481
-647.5447962
-795.2232243
-914.5759267
-1010.615712
-1068.294491
-1056.220547
-949.3937313
-754.51041
-517.6870575
-306.2781986
-175.5535087
-139.7617493
-166.5589218
-199.4080851
-194.3552647
-148.8073028
-101.2731885
-102.4963549
-180.099745
-321.5777767
-486.3783772
-633.1830588
-743.1414766
-823.9700743
-897.6434512
-981.9121523
-1075.885257
-1153.289106
-1169.34325
-1082.538584
-883.6737527
-614.5193237
-357.1360913
-194.6831439
-168.1252687
-253.9756191
-376.0321465
-438.7044319
-365.6849106
-133.261097
213.1176006
569.1203551
810.3779497
845.3807202
652.6192212
284.7106503
-159.2363896
-573.3437748
-876.6542637
-1029.036665
-1032.398532
-921.7181017
-749.7817054
-571.5368339
-432.7948579
-362.4969382
-368.3935081
-434.9379432
-527.0403603
-600.7766413
-621.3596492
-579.9713104
-499.5664657
-422.6779758
-388.5114459
-411.4431855
-472.827229
-530.1917444
-539.3395014
-478.253206
-358.3236932
-216.4181981
-94.67368059
-20.60203639
1.846648924
-12.92539787
-46.00601321
-86.10444091
-133.8767932
-195.330105
-272.9014541
-361.277145
-451.0609048
-534.1680497
-606.5934535
-667.8496359
-717.6305754
-753.3983877
-768.9158864
-755.1309597
-703.4356139
-608.6460107
-471.8556414
-303.1251618
-125.4889806
25.54158302
112.0789709
112.2797134
32.97412418
-97.17408766
-247.4351049
-400.8959223
-553.2578335
-698.8598048
-816.9593595
-870.0443983
-818.3699595
-642.9122081
-364.7777568
-48.08773968
219.0948515
359.7339039
344.5377887
211.3042755
54.79155433
-16.16529372
67.72427948
302.3869312
614.8845831
901.4754701
1073.261829
1088.185943
956.4331377
724.1377897
450.3347255
188.6634969
-20.5786985
-151.5868643
-191.7387688
-143.1207778
-26.91875173
115.5685528
232.2174317
278.0636954
233.4055357
111.6609951
-44.89261032
-182.0940462
-257.377461
-260.8484983
-220.6700921
-187.3819253
-203.1420676
-275.5374618
-373.7922252
-449.5608944
-465.494095
-411.0850227
-297.9166464
-144.1593452
39.05466635
250.2705892
487.6775482
733.0413039
940.6484153
1045.466585
989.8051104
754.0032199
372.2379335
-72.17975589
-467.6960999
-704.4640598
-709.6412295
-477.4513875
-79.88188496
354.3917743
687.9050915
827.3704238
757.4499741
538.0858101
269.9735203
47.10837219
-80.72219968
-118.147383
-104.9169087
-82.99309436
-70.3138777
-56.93391101
-22.28548807
40.97017915
115.8944081
171.3582847
187.2251843
173.5448194
166.4323278
199.9767034
275.6652305
355.5625838
385.5829132
331.7811616
202.2629625
43.65200236
-82.69354474
-128.298604
-77.40000657
49.05411773
205.0333305
341.8877292
429.1081066
461.4332974
451.2154452
414.3705236
363.3515152
306.1873689
249.3450231
199.4090662
162.3018839
140.7229163
131.3318409
125.6916184
112.2297285
81.30238824
29.93900205
-33.88190828
-92.68730348
-125.8946369
-120.3327562
-79.40624121
-27.93717285
-5.501134457
-47.2173981
-159.0551811
-304.197048
-416.1727262
-432.6000934
-329.0407585
-130.7927553
103.5517158
312.0818334
454.7195815
520.9455584
524.2175558
489.6827439
443.5057758
405.096562
380.8986631
362.3881183
331.7261302
274.7254959
191.8994999
100.8777097
31.1457131
14.65937894
74.27265761
208.9680055
384.0992618
539.0446396
614.3142276
581.8207969
456.8823167
285.9144263
122.375679
7.341868646
-38.92016685
-15.21847821
67.29575684
190.6962246
332.8798599
466.5318106
561.5694216
592.8721461
550.3742541
444.3406774
299.7688806
145.8692005
9.498873082
-88.27210429
-132.7360464
-117.9196143
-48.42707017
57.70981433
166.939475
233.6205085
213.4081905
84.53608134
-135.2534936
-388.6274251
-598.6652095
-700.2119099
-666.9604811
-521.3596842
-324.2441507
-149.6794114
-58.33381318
-78.32886944
-199.754829
-381.8324164
-566.4683227
-694.4370913
-720.1245328
-622.7730633
-412.5309466
-130.0610429
160.8894158
389.8585031
502.6493387
482.471816
358.1910979
193.1238405
58.55808251
7.411741365
58.9069532
197.4482273
379.3221362
546.4320485
646.3484462
653.2886536
577.4847882
456.7590736
335.3837585
243.9105514
193.2774033
179.8995843
194.2636191
224.1802951
253.8778065
266.5643838
250.6338326
205.371198
138.4827079
59.14337784
-27.15336693
-116.0256522
-197.1594246
-248.7927092
-240.2591115
-142.4614587
55.37473518
330.191454
621.3071979
846.2898146
932.2739741
846.2635138
606.6404758
271.5031618
-85.05776794
-395.3285861
-611.0788474
-710.5225935
-704.2570193
-636.2703129
-569.5449492
-557.3880264
-614.4408575
-705.2649512
-757.8140096
-694.116238
-466.1202052
-82.66624917
383.8138667
817.0344809
1098.568101
1153.308172
978.9318548
644.9578434
265.3238807
-42.22389427
-196.6842593
-178.6261462
-31.32419015
162.9297683
319.3082086
382.5103983
339.6077972
212.2033571
37.64605595
-147.1891582
-310.6940447
-422.3780087
-452.127017
-379.5499939
-208.3564937
27.67349655
273.7683909
474.1171814
590.0269708
608.077679
536.960905
400.5692369
233.2937495
76.410079
-29.05988535
-56.940495
-10.4862359
75.68973426
154.5363194
195.5472782
201.7904389
199.8797891
209.6273511
220.1788866
194.0164792
98.30125213
-60.06062611
-224.8521685
-315.0835413
-270.0310883
-84.04885119
185.8869002
443.6905734
594.4233238
585.6102786
430.4548544
201.7532015
-1.886364174
-103.7925361
-84.99550084
11.30987794
111.1532329
155.2975318
130.2951703
67.6348305
16.64143157
12.13136797
55.14419298
113.0980021
139.8734924
101.1894168
-8.159539471
-164.0549229
-325.8401756
-450.931813
-505.9873037
-475.5065808
-366.4937073
-207.2200768
-37.26176723
106.7350006
202.567237
246.2044561
246.2935928
214.1446315
158.5183173
89.3054464
25.84383426
-2.550480688
29.93911704
126.4633518
257.9668504
373.3316977
422.9622197
382.7292895
264.3456443
109.1325845
-30.73697954
-114.1476003
-125.7294012
-77.33207739
0.970646382
74.04951219
111.8906268
97.44668828
32.35316468
-61.11599344
-145.521263
-182.3706505
-149.204079
-52.33336999
70.86235813
165.453077
181.2397584
98.43661032
-58.24938258
-227.7471549
-342.2758272
-361.7742149
-292.8949237
-182.5938094
-91.89635456
-64.53393907
-105.9441516
-183.6089721
-248.2511558
-264.5616288
-233.7171213
-192.2526905
-187.5086886
-247.4022227
-360.6027344
-480.6522341
-548.5079773
-522.6833727
-400.2949979
-217.5670005
-28.50340794
125.2913067
230.94157
298.7213965
339.653146
346.8062326
294.776214
157.4780314
-63.5813833
-318.6196292
-511.7174327
-533.8368035
-316.0959548
123.9358595
672.0702447
1155.574518
1412.785858
1358.553644
1014.650219
492.1526785
-60.35152938
-513.8223843
-793.756177
-883.7292178
-807.9399769
-611.5679841
-352.0384195
-97.22937785
78.75432022
114.6451068
-8.616409328
-248.7649949
-516.2557048
-716.2305446
-787.6131902
-715.3840493
-516.9967215
-223.2975078
133.4215003
518.6757629
885.7093647
1166.474483
1279.103398
1159.334424
802.6595247
289.1870656
-233.3702124
-604.2374049
-716.2946996
-559.5530939
-221.9202939
152.3730313
423.688299
508.0803132
399.9273227
161.1574129
-111.6967148
-325.5657788
-419.8476695
-379.1194519
-228.568367
-16.8388241
203.8777604
392.3540017
524.2072777
588.8790409
584.6371073
515.1912767
391.7029729
235.9689424
79.44374133
-44.50043246
-111.5790441
-115.5677114
-71.21265697
-8.802065367
35.923572
33.4837525
-28.06360683
-134.5380237
-244.5080223
-300.6396952
-253.3470397
-86.44649685
167.2575065
430.9580054
609.8556895
629.4152137
467.5100316
166.1498838
-181.0383927
-461.7173541
-588.0140561
-534.0827293
-348.9138043
-134.8447212
-1.893938397
-20.36518577
-192.416764
-454.1631072
-703.6791629
-841.8163727
-809.5245528
-608.3935431
-297.8276602
27.46672661
271.1100169
367.6335503
304.3003668
123.1852366
-98.26804585
-279.8455174
-367.3778266
-344.1945827
-226.4785811
-49.38032918
145.1323675
316.5238134
431.1318181
467.2088668
420.3204398
307.295408
164.8255271
40.90371372
-21.35303553
-1.353311622
88.5982063
207.4063271
301.8456549
328.1465095
267.5786356
130.3818581
-48.02180666
-219.2406197
-337.6392106
-377.1200836
-341.0660467
-256.7507265
-159.2375248
-75.59509187
-20.04440367
1.561739903
-12.13706782
-52.80803106
-93.99292325
-93.94954742
-17.66363499
135.1360269
318.0777665
456.7782994
486.5686918
384.5257381
174.8138323
-89.64431743
-351.7646641
-567.8346545
-714.8500876
-790.5862426
-809.368696
-792.584073
-756.2471186
-701.5918565
-613.0487736
-465.8384687
-240.2732996
62.03446927
408.3711244
737.2161228
975.8460587
1067.528557
995.3594835
790.9401788
523.7163423
277.4405328
121.7932381
90.05678236
170.3392625
312.9129174
449.8366683
519.3649589
488.9428461
364.5713934
185.9071118
6.421975066
-130.0132963
-207.2458688
-238.7756915
-250.9325702
-256.5672517
-241.135534
-172.8464586
-29.43421757
179.1997011
409.7344064
602.7678839
706.3758501
690.8012638
552.0410211
313.8229537
30.65990663
-218.2259093
-354.0787403
-335.4950358
-181.0528836
41.9754233
254.1007819
400.3596189
464.5524442
458.9415574
403.1191842
309.9119911
184.5443772
34.25430235
-122.1307452
-251.977286
-320.2368089
-309.8696861
-238.2888102
-154.5335616
-112.4209311
-135.6108835
-199.7306738
-246.2874258
-221.4238766
-113.0355412
38.87692731
163.6727816
198.0767125
119.2340658
-44.63075254
-227.8038586
-357.467679
-384.0211676
-297.6968643
-127.0159643
77.50746428
263.2812755
390.5242717
436.2271902
392.552357
266.256079
84.14087717
-103.2603385
-232.0850334
-251.1284396
-151.809561
18.62786577
171.7702271
217.8941395
111.6071081
-121.6155443
-394.8252853
-599.9120639
-657.4066643
-550.8009881
-328.9569337
-79.27075209
113.4465568
201.208862
186.0523207
110.6702618
33.58892046
0.710719331
27.89500123
97.85929336
171.5139115
205.5943057
170.6958004
64.40335917
-84.24359739
-223.0743891
-296.2720169
-267.1687472
-132.2898071
77.92731452
309.7790398
503.2621066
609.6011872
603.9833052
489.8480679
294.6527765
62.05411894
-157.2845544
-316.7177663
-387.8708423
-372.1181724
-299.515431
-212.8009889
-144.6854763
-103.056993
-73.56124865
-35.25915005
23.82445577
101.01091
182.5831362
248.1408052
270.7670812
221.2127016
82.37929795
-131.0020356
-363.5193813
-533.0221775
-563.675379
-420.6316017
-129.5005026
229.8528499
551.8762905
741.5819599
744.4221031
562.0976257
252.6864301
-85.47444004
-342.6700514
-434.0649376
-335.4352134
-102.6790198
140.7067666
251.5949329
130.4862442
-234.0913292
-761.3782814
-1314.686286
-1755.528329
-1991.005021
-1996.086964
-1809.710807
-1510.576202
-1186.624907
-904.6294259
-689.8353437
-525.8844861
-380.1365829
-238.0618663
-117.2910392
-44.92120021
-20.94453156
-5.317535339
55.02491267
179.9711014
328.6632575
415.1435874
362.1332471
154.6818606
-143.7286968
-421.7252985
-575.081651
-551.7803831
-370.411678
-109.111124
129.5148524
262.8705728
261.9861553
155.3252207
4.458950574
-131.3044552
-220.2093866
-261.2601618
-268.0216653
-246.7143284
-187.3198378
-73.7580206
93.52609979
280.8009434
427.2864086
474.6175784
401.4682542
238.8691196
54.97865285
-82.4464256
-141.390176
-138.2257877
-122.2333507
-144.5074153
-227.1273672
-349.0781203
-455.4713602
-485.022945
-401.8793766
-214.9846002
23.48523764
241.5913691
379.9968075
416.1086201
368.8677346
282.6459899
202.4445656
153.0044377
131.899329
116.6105274
80.17503518
4.638014492
-110.5983438
-247.1278369
-369.9678034
-435.2468101
-404.7409654
-265.9320772
-46.96418245
186.4160265
355.3881288
404.3954968
327.9852733
173.0993625
13.90459809
-84.22251586
-93.84475616
-31.32349406
58.49460162
127.1683152
144.9964366
111.7015855
53.9081252
11.05767004
17.02228314
84.08048123
196.1647265
313.1415441
386.9152169
382.5061362
295.4073251
155.095905
11.09472863
-91.04162755
-131.5670297
-123.2835111
-100.9324603
-100.7758812
-142.9480921
-223.3964756
-315.1414893
-378.1339645
-374.1719211
-284.9117305
-124.0026147
64.57754571
223.5635947
308.0045699
305.2733432
238.8630297
155.0558209
100.4234688
102.5271245
159.9043782
241.926749
297.3791904
274.1556275
146.2671324
-65.5743531
-296.6966063
-466.0598518
-513.1519198
-423.5832604
-232.8161327
-11.13207121
163.0210013
229.7109054
164.9103704
-15.10953324
-262.9717181
-514.8821648
-707.6489846
-793.6898689
-751.6822112
-590.9925468
-347.150026
-72.27335619
176.6968595
349.3299355
413.4037723
364.8839296
230.8687586
58.74548006
-102.7857733
-221.95369
-291.185929
-321.6865665
-328.9729686
-320.7768182
-297.0983302
-261.1877371
-228.9444859
-225.3255084
-267.9272425
-351.5241788
-447.5487789
-520.7952076
-548.6935737
-530.9627058
-483.5026078
-424.7625311
-364.5246444
-300.4465416
-220.6177173
-109.9211492
41.98610287
230.9280237
431.139338
597.2411039
679.758209
648.4990431
510.3918176
307.7719474
98.46237117
-67.4643658
-160.9651297
-174.1788156
-116.1629863
-11.08071225
104.7203444
190.1592413
212.055759
157.2858323
38.46849052
-108.9907629
-237.3463668
-301.2657205
-272.6001568
-149.7938247
41.21921806
253.5861724
433.8506992
540.3372519
558.9130072
506.0890658
415.9391678
318.8935568
226.5875118
132.4181171
26.31872871
-86.47609571
-174.3422732
-186.9976319
-81.2112827
149.2888194
459.8476706
767.7411698
986.5174956
1062.507754
992.3691071
815.3733671
589.7699643
367.6933112
181.8558001
44.83993679
-41.78856534
-75.67631402
-47.69006743
53.75740521
229.1437851
452.9904678
671.2076002
816.5645452
837.0081941
720.2181097
499.479824
237.6564336
0.247800446
-166.2135974
-240.5597486
-220.0435473
-108.6411716
86.83972174
350.8746143
648.5333658
919.5552133
1086.696315
1082.323985
881.3101372
518.5711838
78.83321351
-334.4920639
-632.6587242
-762.7133587
-715.3495638
-522.1041843
-244.990702
40.97950216
268.0825291
393.286208
407.6855386
335.6393836
223.4377598
120.5786919
60.5918083
50.8958059
75.46389155
108.3059841
129.6877391
136.8897316
142.1211485
161.4103457
200.0513613
246.0609146
276.0805859
270.7147734
228.2357009
168.0088749
118.0973472
94.30102347
85.29740667
58.10698824
-17.69160079
-145.4717941
-293.7894984
-410.2392395
-449.564612
-398.4566758
-283.8402012
-160.3824444
-84.46483211
-88.55410459
-167.9110364
-284.3534059
-386.6948381
-437.1672602
-429.0196067
-384.0292141
-333.4548647
-296.1526235
-271.1057129
-246.2495288
-214.8322878
-182.5206231
-160.740399
-154.215715
-153.9523772
-140.5180708
-93.98204592
-3.948272088
123.9106335
267.7497679
398.5818501
492.2664349
535.7193056
524.1983732
457.3420502
342.0449439
199.760243
67.95385692
-10.28396161
-5.721551194
79.00493026
206.5866101
322.7380661
385.1496897
387.6101372
362.5928259
360.1501984
415.5332544
524.7530055
646.5812459
730.6137452
751.3369109
720.9863375
674.4558385
639.6865026
618.828596
591.4610214
532.7751625
431.7693456
297.8624683
155.3141917
31.23366335
-53.64974716
-87.60912814
-66.74622047
4.199993308
108.6163719
218.0695437
297.3006433
315.6913689
260.6129105
144.5374168
-1.146134677
-143.3951166
-262.4217584
-353.8872991
-420.3191057
-462.3224924
-475.5260345
-455.8546408
-406.9675222
-343.7559761
-287.5123486
-253.1894074
-238.4805667
-222.9307817
-180.9104926
-98.38311718
16.55322904
137.1686866
234.0728427
293.105761
320.8967821
334.38148
343.3350336
341.0493241
308.6544781
229.7298282
105.7307192
-38.29920116
-162.6147411
-230.4602034
-219.4123601
-122.4425406
56.3555547
299.9388561
569.8352049
804.1101827
932.9716076
907.4509447
725.2364051
435.141078
119.2223143
-140.9656761
-293.3961648
-330.8163307
-283.4872392
-198.8316174
-120.7215879
-78.37816001
-87.07632411
-152.166781
-267.4257784
-409.0901069
-535.4987835
-600.6109729
-575.5409924
-463.5591476
-298.7149547
-129.121272
3.862921708
79.18315355
96.1457776
65.36528999
-0.983587977
-92.25461589
-194.7063781
-285.8496834
-337.9736845
-330.2380849
-262.8520982
-159.7593273
-56.90808541
17.42855279
56.45946317
74.58323163
93.47986187
124.6544026
159.9029611
176.1305438
151.4178633
81.41192619
-16.26808092
-110.9110584
-172.9149161
-182.8277151
-135.0950473
-39.31716574
79.19045746
182.4630275
229.8809915
192.1095297
63.96760212
-130.6382819
-344.9214878
-523.8625916
-623.3313733
-626.3635145
-549.4393002
-434.121618
-326.428498
-255.598545
-226.5696273
-227.9466464
-246.6755403
-275.3979778
-310.397253
-345.719442
-371.3671648
-376.5568024
-355.2002194
-311.2360306
-258.55424
-214.9358471
-189.7887161
-177.4763654
-162.6507366
-134.9293829
-101.3395947
-83.55448773
-101.2463568
-152.0675511
-204.5443979
-209.7577745
-128.0769507
43.81758427
264.3276081
462.9137103
575.4835303
576.1128953
486.0328048
355.9321164
234.3326862
141.8472413
66.80990859
-17.61797117
-126.5432688
-246.522308
-339.456276
-365.6942496
-307.1292403
-175.5499493
-2.83253677
176.4717869
336.2032398
455.8710688
511.2452031
473.2097938
322.423897
69.35677046
-236.0157988
-517.8166349
-703.29777
-752.314478
-670.116544
-499.4885755
-299.7456537
-123.7861684
-3.734503845
50.28625119
42.52633035
-17.32777764
-115.6785512
-231.1204725
-333.3128829
-393.0470032
-399.3032121
-369.7874936
-343.3553559
-356.0859144
-416.6674265
-498.9262305
-558.6884597
-561.0524611
-501.1974493
-404.9337531
-310.3522792
-245.2313315
-213.5622235
-201.3096988
-192.8282368
-184.6488099
-187.583192
-216.3651906
-276.9562517
-358.8754687
-438.6939226
-491.1817246
-501.6080995
-469.7914246
-404.6036983
-313.3253458
-198.2850034
-62.9006117
78.39011922
196.6928259
257.8880841
241.3007349
154.0697411
31.36990978
-79.77148157
-144.241719
-155.2311055
-134.9534837
-120.7004643
-145.879656
-225.007652
-345.1098093
-468.1755729
-546.9427783
-546.8582564
-462.7329032
-321.3655655
-170.1219011
-59.70865356
-27.79277143
-87.67497761
-224.449691
-401.4518098
-573.6131587
-700.5493188
-755.5339578
-727.2710573
-618.745265
-444.130083
-225.4908468
9.268831567
228.6682474
403.8577363
517.2421037
566.841537
561.4153432
509.845059
413.5127779
268.268338
76.33501347
-141.2615384
-342.0807933
-474.2897988
-497.6337955
-402.821665
-220.3119914
-14.36395525
137.9986437
177.524178
88.88907607
-92.44556524
-296.9344203
-453.6062984
-520.9127016
-500.5140774
-428.9168315
-354.9454164
-317.1248784
-330.9441388
-387.8860283
-464.5060381
-536.1079387
-586.9015699
-610.7178583
-604.1742059
-561.1355441
-476.7605075
-356.7188395
-223.1844431
-108.7160995
-40.84490761
-26.59280562
-44.75321291
-50.77491492
9.71906903
179.1071968
465.1055881
826.2052821
1178.091859
1423.971366
1496.68702
1389.417361
1154.978615
872.8804471
605.2917723
371.4350153
157.6028578
-48.19338019
-227.9545345
-335.3515485
-326.4383878
-196.4446908
7.329986057
206.4716673
329.8167587
342.8494043
252.9654692
96.00258351
-82.18858185
-237.7005863
-333.7129413
-343.854797
-258.4483736
-91.4928367
121.4340308
334.0889539
505.8957713
612.2381538
647.2820643
618.6543195
541.5981643
433.9372476
315.0511274
205.3791413
123.9736049
82.08914102
76.3219977
89.08652722
98.01520737
89.52404
64.65500045
35.24984233
14.13974119
9.120248229
22.366916
51.83540526
92.06264659
134.4073491
170.5709221
198.23519
223.6883955
255.1050284
289.3356124
304.7019644
270.458039
168.1637821
11.18575931
-153.2612797
-261.5703383
-261.1179045
-135.0733745
86.11309297
332.7649419
523.686389
605.2187295
579.0262639
497.8891086
429.4987228
411.8022132
431.28179
438.4138622
387.8696318
275.1474032
143.9425112
58.78776794
64.47720144
160.7457366
305.1652118
439.8064673
523.4000017
551.3911809
554.6296739
578.9328881
658.886916
797.1766396
957.6151323
1077.831694
1095.986866
979.5583126
739.2245206
423.5418346
100.5913756
-162.0071074
-313.7575821
-333.0531694
-233.2008321
-57.26298294
135.2159782
285.7114175
351.4550661
315.4445621
190.8867198
18.16589954
-148.5688848
-262.4148928
-303.8621227
-287.3470277
-247.8337261
-215.9228109
-197.0126417
-169.2228887
-103.2773782
10.20150269
144.6669569
246.6180483
265.2774269
184.2372165
34.35867014
-120.1097847
-214.9460427
-218.9919109
-146.6561037
-41.24525984
56.70334744
132.3823997
195.3237629
260.9907399
331.7934905
391.6137866
412.6657509
369.9603276
255.0386946
83.8503897
-102.0991143
-242.1339159
-272.9548321
-152.0171566
120.8260315
495.0419486
879.2201263
1167.125483
1272.275295
1159.784714
862.7319132
476.0427585
126.4531808
-71.55740686
-60.94351079
132.0323404
405.1058166
621.9876292
672.8626352
526.1949995
242.6600349
-56.21323058
-247.8080794
-266.4184049
-128.2690575
85.33236569
274.6146411
367.8013524
342.2398002
217.1065066
32.83261761
-166.5929482
-343.3107642
-472.2433485
-546.1190844
-573.8265662
-569.3404349
-538.7087048
-479.4046087
-389.4979734
-275.73308
-148.7453057
-11.71530641
144.5752749
332.0712095
546.29974
753.2998403
895.6822508
918.37154
799.6924266
564.4972656
270.3819649
-21.71009148
-272.1285986
-468.5380958
-617.3736839
-729.8553215
-810.780081
-852.4899515
-833.253227
-722.8005023
-500.0898281
-180.0134537
169.8136986
440.2425561
521.524804
352.0672736
-49.85941783
-585.2026287
-1101.62147
-1439.648355
-1485.968407
-1219.543578
-727.3664212
-175.5492688
259.1881445
464.1989332
432.1561611
248.3745759
37.62211515
-97.58553002
-117.6465639
-52.33399986
24.64781309
40.29060373
-37.49095374
-186.1975347
-348.7494855
-471.8233259
-537.9944069
-569.9728446
-607.8463585
-677.0556031
-770.454916
-855.4857425
-898.9016784
-888.0563094
-833.4419157
-755.731442
-671.1662108
-585.8354627
-496.5691718
-394.3032917
-268.7774278
-117.4849009
43.3076308
175.5273507
231.8971733
180.838234
26.63800648
-187.0077207
-393.8030445
-528.4647788
-546.1910946
-433.3943553
-214.1261478
51.40948348
281.7451129
402.9209437
378.2401173
222.9305144
-5.297067881
-230.8507839
-386.7281694
-433.6698678
-370.4701867
-233.0811508
-83.03043962
14.43860421
17.21119588
-76.22204459
-231.264968
-402.3642842
-560.7325924
-706.5405813
-857.4337847
-1023.463066
-1185.556893
-1294.436335
-1291.79953
-1139.056463
-834.1392649
-409.9995944
78.39704979
1663
57.61508579
-81.86791467
-267.1997766
-510.5364516
-779.6989765
-1016.325784
-1169.40245
-1221.951029
-1194.60666
-1126.790504
-1051.965394
-984.7808552
-924.7307847
-867.0043763
-808.92248
-748.6965903
-681.5887576
-599.7711123
-497.8215685
-380.2476324
-264.0671297
-171.389419
-115.1713412
-90.26689475
-80.37492547
-76.46641429
-89.09223252
-141.992089
-251.5206697
-407.3492487
-568.9335441
-683.4514553
-716.2909781
-672.5518421
-592.3712502
-523.7149165
-492.6970883
-489.89167
-479.1709045
-424.3882781
-320.0701183
-206.2854554
-152.8690169
-218.0866776
-408.8329881
-671.4495503
-919.1059149
-1075.300257
-1106.473211
-1029.097271
-892.8727896
-752.6564448
-645.1462654
-581.2087347
-554.0475635
-554.3454919
-580.5969457
-636.3660628
-715.8029964
-790.3595892
-812.511301
-739.8998773
-564.9844578
-328.2534338
-103.9430543
33.77391099
44.12364708
-65.5031118
-249.4704225
-450.8768754
-629.2248579
-772.6550047
-888.6433713
-981.9292475
-1037.963179
-1026.238468
-922.4565735
-733.1257471
-503.017405
-297.6642693
-170.6508579
-135.8386441
-161.9320793
-193.8544497
-188.9314718
-144.6531634
-98.45430926
-99.68396553
-175.05085
-312.5347516
-472.6262913
-615.2686171
-722.0861467
-800.6215943
-872.1850907
-954.0904468
-1045.357338
-1120.564028
-1136.190136
-1051.792693
-858.5880054
-597.1358126
-347.0347163
-189.2648828
-163.4169011
-246.8179173
-365.4532489
-426.3336154
-355.3993646
-129.5704219
206.9865074
552.8054553
787.240455
821.2264315
633.9470931
276.5286746
-154.8009217
-557.1309854
-851.8002549
-999.8179814
-1003.111345
-895.6002727
-728.5170091
-555.3546336
-420.5549735
-352.3017495
-358.0076646
-422.6534507
-512.112242
-583.7758162
-603.7495594
-563.5526355
-485.4227144
-410.7475635
-377.5512926
-399.8152649
-459.4643849
-515.1676753
-524.0473982
-464.7368103
-348.2145588
-210.3560451
-92.10970088
-20.11778984
1.728213527
-12.66294045
-44.75498231
-83.72902083
-130.1496673
-189.8889603
-265.2052755
-351.0646739
-438.3078076
-519.0391832
-589.4385261
-648.9088055
-697.2719301
-732.0357685
-747.1105512
-733.7650405
-683.5216267
-591.412488
-458.4889375
-294.5998541
-121.9824185
24.7611943
108.7830844
108.9950409
31.93433518
-94.49884608
-240.4946843
-389.5595185
-537.5785683
-679.0708168
-793.7810271
-845.3577585
-795.1582484
-624.7022889
-354.4748568
-46.77632656
212.789449
349.4573535
334.6382879
205.2391749
53.1703088
-15.78995495
65.72794812
293.6689878
597.3297108
875.7354246
1042.639603
1057.16099
929.1243086
703.4523602
437.421955
183.1955024
-20.11879756
-147.3830993
-186.3593492
-139.1272916
-26.25778012
112.1837234
225.5136854
270.0992639
226.6808933
108.4144271
-43.70426944
-176.9943309
-250.1551701
-253.5159182
-214.4898925
-182.1245891
-197.4269925
-267.77278
-363.2393687
-436.8597598
-452.3761189
-399.4705198
-289.5045639
-140.1342355
37.86875845
243.0562281
473.7471338
712.0979648
913.7958627
1015.629991
961.5684653
732.4692677
361.5900525
-70.19994215
-454.4610176
-684.5104446
-689.5097495
-463.9644489
-77.72153415
344.2642516
668.2390373
803.7310526
735.8257084
522.6988232
262.2104555
45.69007662
-78.50289436
-114.8365928
-102.037545
-80.73615374
-68.38093824
-55.36900518
-21.74511205
39.73194587
112.5102807
166.4049114
181.8006808
168.5095245
161.6270154
194.2296763
267.7683856
345.3496642
374.5507344
322.2666437
196.4355874
42.3272919
-80.38652609
-124.7351981
-75.2914174
47.57295205
199.1215793
332.0738913
416.8065763
448.2735907
438.2546055
402.488521
352.9415008
297.3988639
242.1567605
193.653567
157.6394612
136.594944
127.5133519
122.0116495
108.9660839
78.87547205
28.9979058
-33.01326502
-90.11322869
-122.4195007
-117.0057519
-77.25568157
-27.21365066
-5.418880922
-46.00223404
-154.5923402
-295.6221917
-404.4363661
-420.3761052
-319.7729504
-127.1469492
100.514364
303.1433935
441.6648187
506.0408692
509.2306832
475.6523848
430.8112699
393.5119531
370.0028406
351.9793596
322.206431
266.8272309
186.3344858
97.94553176
30.19004187
14.16610253
72.07379028
202.9390728
373.0917737
523.6238475
596.7525482
565.1956065
443.8140301
277.6898514
118.8271984
7.071819822
-37.89026285
-14.86600358
65.25339841
185.2000838
323.3059026
453.1586346
545.529598
575.9034851
534.6528875
431.6651325
291.1436339
141.6690256
9.13619678
-85.83068202
-129.0749527
-114.6686336
-47.12390835
55.99743668
162.1292235
226.8978439
207.2575418
82.05409085
-131.491565
-377.6640091
-581.7207806
-680.3563562
-648.0379978
-506.6346822
-315.0881048
-145.4912778
-56.7474403
-76.14785755
-194.1452008
-371.0417891
-550.4453071
-674.7742781
-699.7172923
-605.1539648
-400.8827273
-126.4435144
156.2245994
378.6852675
488.2706395
468.6647925
347.9371631
187.5394804
56.82749961
7.100862214
57.1519932
191.7453055
368.4354097
530.7873522
627.9036758
634.6199032
560.9518924
443.7114924
325.7493566
236.9303467
187.7139911
174.6962153
188.6844677
217.736831
246.5987578
258.8637183
243.4153001
199.4327691
134.4629218
57.38371073
-26.43294247
-112.8021308
-191.6181388
-241.8136796
-233.5284054
-138.5198816
53.69887038
320.7239553
603.5661334
822.1103534
905.6558318
822.1340623
589.2881585
263.6781626
-82.72224463
-384.1596535
-593.7587045
-690.3603927
-684.3167616
-618.2430409
-553.4177985
-541.6450023
-597.0540433
-685.2876681
-736.3370128
-674.4785178
-452.973926
-80.415692
372.7976118
793.743069
1067.222625
1120.410015
950.9911732
626.5037993
257.7437725
-41.09498952
-191.1765352
-173.6179449
-30.48896388
158.1931365
310.1333773
371.5614159
329.8546095
206.0655798
36.49111873
-143.1001144
-301.9384805
-410.4353085
-439.3229683
-368.8319628
-202.5151703
26.78541031
265.8969988
460.5337964
573.1730367
590.706581
521.6003525
389.1080183
226.5558771
74.14322625
-28.32204409
-55.41048099
-10.31075021
73.46148821
150.0981816
189.8955365
195.9659057
194.1186955
203.5978571
213.8386659
188.408645
95.43026145
-58.4821206
-218.5190265
-306.1861436
-262.3865864
-81.74577791
180.5530951
430.992339
577.430906
568.8770676
418.0889687
195.9094226
-1.941946724
-100.9056291
-82.68253395
10.89479432
107.8917834
150.774955
126.5216896
65.63491888
16.06751683
11.75414792
53.46204872
109.785456
135.8106932
98.22218933
-7.990975989
-159.4636132
-316.6734914
-438.2095238
-491.7255944
-462.0583654
-356.1360625
-201.3973225
-36.26533917
103.6157726
196.7121801
239.1158167
239.1804487
207.972131
153.9308481
86.69195322
25.05655233
-2.531070819
29.02649354
122.7559584
250.5254543
362.5983064
410.8692087
371.7934613
256.7529626
105.9402048
-29.95568395
-111.0035521
-122.2409569
-75.24910308
0.863725858
71.8765697
108.6558517
94.60751731
31.34423346
-59.44331295
-141.4823248
-177.2924144
-144.9961023
-50.94465453
68.80588079
160.6537284
175.9752054
95.55073767
-56.65067381
-221.3389249
-332.6150076
-351.5601171
-284.6403654
-177.4796455
-89.36924433
-62.75778686
-103.0084645
-178.4975583
-241.2633917
-257.1086047
-227.1713434
-186.8160937
-182.2797635
-240.4338103
-350.4286972
-467.0609086
-533.0022772
-507.8889918
-388.9751686
-211.4850377
-27.73003996
121.6421563
224.3127578
290.1525351
329.8657046
336.8551992
286.3010232
152.9480294
-61.84165348
-309.6408434
-497.2471774
-518.7422411
-307.1853278
120.315433
652.8542318
1122.644898
1372.50109
1319.797836
985.6835449
478.0720566
-58.70221608
-499.2636101
-771.2511491
-858.6885957
-784.9959741
-594.236794
-342.0827448
-94.56162227
76.44053253
111.3084311
-8.450642792
-241.7787381
-501.6417965
-695.8748438
-765.2960628
-695.1201556
-502.3650864
-217.0062029
129.5345673
503.8259951
860.4322615
1133.203366
1242.641319
1126.265734
779.7665743
280.8665939
-226.7950054
-587.1322532
-695.9690435
-543.7033297
-215.6870942
147.9859421
411.5465042
493.546772
388.4977327
156.5134209
-108.6138008
-316.4029244
-407.982086
-368.4232063
-222.1524946
-16.44971147
197.967862
381.1353352
509.1943369
572.0464503
567.9221545
500.4539009
380.4808384
229.1947124
77.09600317
-43.35027964
-108.4866297
-112.3628644
-69.25659256
-8.632948931
34.80869238
32.45454944
-27.33987348
-130.8012445
-237.6164044
-292.1736103
-246.2376873
-84.09673771
162.4163711
418.5850169
592.398692
611.4411123
454.1472048
161.344435
-175.990616
-448.661539
-571.3542373
-518.999344
-339.0747618
-131.046288
-1.929836118
-19.8794315
-187.0296096
-441.332389
-683.7384902
-817.9207343
-786.5661836
-591.1471289
-289.4185607
26.62608474
263.3032392
357.0871127
295.5666675
119.6090262
-95.5550277
-271.9871884
-356.968877
-334.4915726
-220.1072198
-48.02223313
140.9568472
307.4513274
418.7761922
453.8233063
408.2949591
298.4480158
160.0241869
39.64848729
-20.81757593
-1.42027849
85.97886485
201.4041576
293.1858512
318.7806447
259.8400034
126.6195535
-46.73829119
-213.1320763
-328.1218321
-366.4913093
-331.4155422
-249.4940419
-154.7797416
-73.54887561
-19.55094437
1.449115053
-11.87918415
-51.41004291
-91.37393114
-91.33634411
-17.22932317
131.1858731
308.9387642
443.6557457
472.6216946
373.5012222
169.731346
-87.18124975
-341.8252291
-551.7739187
-694.5793264
-768.1683181
-786.4477648
-770.1129755
-734.7963411
-681.7028623
-595.7081246
-452.6560567
-233.5124999
60.19558493
396.663839
716.1627101
948.0261332
1037.085946
966.9713089
768.326414
508.7147242
269.4510033
118.253839
87.42646713
165.4185419
303.9458812
436.9045436
504.5465778
474.9355298
354.1389509
180.5355784
6.174810866
-126.3745487
-201.4102176
-232.0991241
-243.8733972
-249.3354512
-234.3685164
-168.011989
-28.69429261
174.0524447
397.9860038
585.5176533
686.2247846
671.0523735
536.2162649
304.8098724
29.6879005
-212.1130089
-344.0734087
-326.0330185
-175.9542533
40.70616722
246.7816268
388.869822
451.2496308
445.7848885
391.5863456
301.0118825
179.2092179
33.16004013
-118.7350144
-244.8812736
-311.2086023
-301.1181989
-231.5957412
-150.2128859
-109.2708446
-131.8346022
-194.1248502
-239.3312937
-215.2056447
-109.9317128
37.67693943
158.920002
192.3829356
115.7484011
-43.44730807
-221.4156704
-347.3878757
-373.1511584
-289.3088061
-123.4706613
75.21935796
255.723492
379.3028848
423.7475328
381.3162313
258.5947617
81.68397479
-100.3974696
-225.5486188
-244.0936976
-147.5887582
18.01530531
166.806529
211.5921139
108.3398594
-118.2483124
-383.6737608
-582.8925581
-638.7817844
-535.2013812
-319.6927175
-77.11841272
110.1476252
195.390793
180.6408983
107.4505185
32.51684946
0.623436043
27.01718423
94.99132488
166.5496817
199.6768281
165.7665603
62.50012769
-81.93644928
-216.8169097
-287.9685589
-259.676802
-128.5992578
75.61997579
300.8613633
488.8577043
592.1728842
586.7125021
475.809101
286.2013721
60.21108807
-152.9018342
-307.7953299
-376.9223688
-361.6060958
-291.0953277
-206.8708863
-140.6600154
-100.2044082
-71.56639529
-34.32901154
23.07747828
98.05240909
177.3543442
241.0188245
262.9856151
214.8608277
79.97165699
-127.3495497
-353.2272421
-517.9309181
-547.7093809
-408.7467684
-125.9216557
223.2254735
536.0887707
720.3948956
723.1517374
546.0394261
245.4149128
-83.13191478
-332.9764632
-421.8141893
-325.9951377
-99.82867552
136.6240582
244.3693077
126.6760789
-227.4933325
-739.7927809
-1277.344196
-1705.659883
-1934.400298
-1939.398274
-1758.28088
-1467.677973
-1152.939327
-878.9572689
-670.2726499
-511.0224131
-369.3933166
-231.3767787
-114.0216085
-43.7140313
-20.4413635
-5.267931537
53.37897439
174.7940772
319.1887887
403.2638109
351.7751757
150.1463934
-139.7147131
-409.7804479
-558.7882116
-536.1703963
-359.9590427
-106.0734744
125.7105002
255.3171731
254.4708063
150.8031918
4.222621014
-127.6359659
-213.9997877
-253.9297265
-260.4390296
-239.753934
-182.0921295
-71.74180788
90.78634308
272.7203498
415.0474365
461.0540774
389.9361666
231.9627935
53.32663452
-80.18493932
-137.496046
-134.3708671
-118.8338179
-140.4862063
-220.7767377
-339.2597764
-442.5896534
-471.3113717
-390.5008615
-208.9448386
22.74967295
234.6528921
369.0678046
404.2001352
358.2984105
274.5126428
196.5752182
148.5577646
128.0089276
113.2102321
77.80502361
4.417059443
-107.5628099
-240.1893667
-359.521842
-422.9272009
-393.3125517
-258.4759109
-45.70348229
181.0177068
345.1872506
392.7881317
318.5845556
168.044645
13.45017545
-81.90251145
-91.27628459
-30.52158516
56.73040038
123.4757899
140.788431
108.4392843
52.2600661
10.64598501
16.43881233
81.61715249
190.4804618
304.1431801
375.7950348
371.4992706
286.9239273
150.6069632
10.71219395
-88.53190035
-127.8995304
-119.8661256
-98.14127309
-97.98493223
-138.9848568
-217.1051946
-306.2662694
-367.450008
-363.6226663
-276.915191
-120.5518923
62.64781372
217.1150551
299.1722938
296.4985712
231.9770053
150.5521024
97.48617591
99.52428737
155.2930169
234.9661237
288.8229202
266.2536385
142.0297219
-63.79411457
-288.3422459
-452.8857917
-498.644461
-411.5786179
-226.2740834
-10.90358239
158.3180956
223.0583929
160.1311266
-14.79360059
-255.557198
-500.297335
-687.6010164
-771.1566558
-730.3811096
-574.2615363
-337.3753318
-70.3140866
171.5934857
339.3275497
401.5235865
354.4330254
224.2361423
57.01134726
-99.9663699
-215.7116042
-282.9692969
-312.619368
-319.691741
-311.7196549
-288.7427583
-253.8600403
-222.5327073
-219.0124631
-260.3948983
-341.5707769
-434.9299663
-506.0656214
-533.1760965
-515.9596031
-469.8561554
-412.7677895
-354.2442881
-291.9694031
-214.4243719
-106.8604033
40.72176278
224.2907685
418.7907951
580.1427656
660.2706397
629.9588773
495.8113369
298.9061773
95.58287021
-65.61547658
-156.4726164
-169.2821266
-112.9455505
-10.84732298
101.6550185
184.657276
205.9368343
152.7263644
37.28472951
-105.9811596
-230.6563268
-292.7491299
-264.9258251
-145.5872708
39.96100955
246.2685823
421.4101768
524.8988484
542.9423846
491.5984386
404.0279073
309.7420571
220.0448032
128.5857544
25.49400658
-84.08352298
-169.4447706
-181.7436398
-78.99722877
144.9562148
446.6962914
745.8161756
958.3946358
1032.205018
964.0061297
792.0902752
572.8903832
357.1483479
176.5907529
43.46751486
-40.6616463
-73.60599124
-46.44736529
52.15958423
222.5509433
440.0231042
652.0197236
793.2356055
813.0831088
699.6311745
485.1848459
230.7858936
0.143441354
-161.5386005
-233.847405
-213.9002879
-105.6301757
84.27775235
340.7812162
629.9992515
893.2917114
1055.669589
1051.462854
856.1607834
503.7138569
76.49745615
-325.0757633
-614.7376494
-741.0885763
-695.039285
-507.3092158
-238.1041018
39.71379362
260.3603687
382.0142254
396.006616
326.0010132
216.9947552
117.0367412
58.78121354
49.39273558
73.25768829
105.1110305
125.9366413
132.8960916
137.9987196
156.737132
194.2779361
238.9519616
268.1449114
262.9286819
221.6874369
163.1405871
114.6429754
91.52944117
82.75950417
56.36887178
-17.27762717
-141.4480937
-285.4833095
-398.6407671
-436.8837159
-387.2205199
-275.8604164
-155.9186129
-82.15139084
-86.14965245
-163.224142
-276.3504973
-375.7782609
-424.8151632
-416.8731195
-373.2003726
-324.0475926
-287.8447122
-263.4736329
-239.3343733
-208.8077139
-177.3985216
-156.2694809
-149.948194
-149.6550451
-136.5974567
-91.38454129
-3.882781301
120.30462
260.0425202
387.1361947
478.1568514
520.4000305
509.2042089
444.2230463
332.2318957
194.0024055
65.90956473
-10.0951221
-5.642737697
76.68477842
200.6637126
313.4595606
374.1241548
376.5353114
352.1609284
349.8060091
403.6478784
509.7612773
628.082409
709.7577706
729.8490194
700.37527
655.170335
621.3929137
601.1326565
574.5304294
517.5403924
419.3981742
289.2886384
150.8002043
30.28451147
-52.19706182
-85.20477382
-64.922674
3.962373976
105.4497365
211.783962
288.7424602
306.6184111
253.11644
140.3557183
-1.203006915
-139.4186661
-255.0475571
-343.8860416
-408.4764178
-449.2227546
-462.0479489
-442.9857167
-395.475391
-334.0474461
-279.3935462
-246.113696
-231.7805712
-216.6813557
-175.8525389
-95.67572855
15.98809057
133.1677322
227.3360305
284.6875597
311.7159579
324.7982849
333.4766377
331.2409296
299.7765357
223.1159243
102.6630995
-37.23906809
-158.0935903
-223.9747006
-213.2439557
-119.0446558
54.69565812
291.3273507
553.4977606
781.1360079
906.3335569
881.5768071
704.4727862
422.7032812
115.708898
-136.9970666
-285.1585938
-321.5181122
-275.4882973
-193.2657575
-117.3807537
-76.21574532
-84.65406071
-147.8949403
-259.9103921
-397.531536
-520.3339784
-583.6231689
-559.2576347
-450.4376501
-290.2753911
-125.5409566
3.679822608
76.84446515
93.29572124
63.41195194
-1.022472116
-89.71628512
-189.2311788
-277.8307929
-328.4294532
-320.9289074
-255.462322
-155.3001416
-55.33435201
16.87710703
54.77808818
72.3711535
90.73896948
121.0423685
155.2955421
171.042975
147.0347872
79.00178145
-15.88246309
-107.8504532
-168.0667429
-177.7040571
-131.3278195
-38.26683128
76.84134224
177.203276
223.2663023
186.5609016
62.08900484
-126.9983192
-335.1766494
-509.0323138
-605.6771171
-608.608601
-533.8845102
-421.877865
-317.2231924
-248.4314405
-220.2130117
-221.5591581
-239.7250355
-267.647271
-301.6512153
-335.9538155
-360.8676552
-365.8966542
-345.2057953
-302.444629
-251.3069369
-208.8944509
-184.4551992
-172.5220481
-158.0939177
-131.1846776
-98.53316479
-81.26992994
-98.43023407
-147.8402923
-198.817253
-203.8549331
-124.5675383
42.47664572
256.6781083
449.6269102
559.0283517
559.6441498
472.1270917
345.7561011
227.59471
137.7225967
64.79557428
-17.1852676
-123.0432815
-239.5668728
-329.8693773
-355.3632571
-298.4808156
-170.6472375
-2.854263393
171.3517275
326.5483201
442.8081746
496.5833721
459.671044
313.1507359
67.33475053
-229.391655
-503.1565453
-683.369307
-731.0114182
-651.1353926
-485.3765956
-291.3287388
-120.3550549
-3.734620466
48.778089
41.23278867
-16.90819214
-112.4908432
-224.6356774
-323.9023294
-381.9495935
-388.045017
-359.3481583
-333.650464
-346.0397799
-404.8564148
-484.8279899
-542.866577
-545.1623791
-487.0366594
-393.4685776
-301.6427531
-238.3276381
-207.55883
-195.684958
-187.4387608
-179.5259362
-182.3250878
-210.2898671
-269.1304218
-348.740942
-426.2806193
-477.2801938
-487.384718
-456.5395358
-393.1469149
-304.4389387
-192.7033939
-61.18268589
76.0982609
190.9910196
250.4690033
234.3504709
149.5902432
30.38810389
-77.60424752
-140.1994299
-150.8870359
-131.2099873
-117.3003445
-141.785597
-218.698484
-335.3641019
-454.9555851
-531.4790256
-531.3579056
-449.6574973
-312.3281756
-165.3676217
-58.07429414
-27.10264979
-85.27618423
-218.1572083
-390.1261497
-557.3165967
-680.7161296
-734.1542125
-706.6688755
-601.2264146
-431.5896458
-219.1647669
8.908798396
222.0779019
392.2973497
502.4600141
550.6479904
545.3834811
495.2746825
401.6285391
260.5365589
74.09144058
-137.318022
-332.4327945
-460.8649051
-483.5587047
-391.4582243
-214.1260079
-14.04538853
133.9710794
172.3944389
86.27060228
-89.89266778
-288.5683073
-440.7763759
-506.1636278
-486.3590925
-416.8067591
-344.9320141
-308.1944967
-321.5965046
-376.9090777
-451.3803799
-520.9501313
-570.2860467
-593.4498741
-587.0838633
-545.304303
-463.2741465
-346.6327236
-216.9030377
-105.6952519
-39.7755535
-25.8778081
-43.58902
-49.40910579
9.363684602
173.9480982
451.7897329
802.6119603
1144.488331
1383.362448
1454.027044
1349.815662
1122.019744
847.9573367
587.9809079
360.7617325
153.0545558
-46.88905955
-221.576208
-325.8640276
-317.2078591
-190.9544309
7.033158442
200.5109031
320.3500705
333.0094873
245.6855715
93.16089314
-79.92581906
-231.0173741
-324.335728
-334.1546669
-251.2212947
-88.9710205
117.8684631
324.5310854
491.414038
594.7642513
628.7638009
600.9906261
526.0980011
421.5115426
306.025315
199.482975
120.3722745
79.6358692
74.072353
86.45014631
95.14369423
86.87599664
62.76713272
34.17102585
13.63532455
8.780279847
21.64852514
50.28518122
89.33707001
130.4934185
165.6328928
192.498342
217.2283491
247.7583296
280.9889625
295.949301
262.673202
163.3075958
10.78092833
-149.0147514
-254.1985556
-253.749468
-131.3328942
83.5820334
323.2107175
508.7022908
587.9122375
562.450082
483.654493
417.2134911
399.99922
418.9573765
425.8819727
376.7130131
267.2198167
139.7632366
57.00729652
62.57911418
156.094268
296.3860811
427.1909654
508.4132095
535.6672526
538.7830273
562.3666199
640.0617648
774.3602179
930.2648337
1047.067827
1064.738946
951.6023167
718.1017823
411.3845309
97.62832871
-157.5009393
-304.8953727
-323.6873014
-226.6219717
-55.70679411
131.276449
277.5008658
341.3904331
306.4010131
185.4015496
17.55503076
-144.4495196
-255.0296269
-295.2916591
-279.2256671
-240.8830582
-209.9053824
-191.4554029
-164.4706622
-100.4090709
9.83856053
140.4624555
239.4856085
257.6258082
178.9009203
33.31144399
-116.7539658
-208.8979582
-212.8742647
-142.5654724
-40.14658167
55.00981375
128.5158463
189.7077637
253.4532033
322.2657334
380.3911041
400.8312321
359.3453408
247.7047021
81.38573445
-99.26065651
-235.3404444
-265.2612688
-147.7565968
117.3011115
480.8462168
854.1194787
1133.843446
1235.981586
1126.662109
838.1277055
462.4060432
122.7673797
-69.62745719
-59.31226114
128.1953989
393.5277502
604.1898481
653.6491209
511.1570389
235.6492721
-54.67962681
-240.8676555
-258.9276967
-124.7090249
82.8146604
266.7487686
357.2865591
332.4136484
210.8341389
31.81314305
-161.9202562
-333.6259475
-458.8878298
-530.6444481
-557.6018221
-553.1900192
-523.474967
-465.8543801
-378.5181646
-267.9512654
-144.5983969
-11.50776486
140.3649351
322.5366361
530.6608323
731.779605
870.0696676
892.1367977
776.8554415
548.3461258
262.6122895
-21.19947193
-264.4415608
-455.2584215
-599.9184607
-709.2129579
-787.8022888
-828.3184077
-809.6396395
-702.3044717
-485.9468671
-174.9756042
164.8858966
427.6622253
506.6111886
341.9492532
-48.51118126
-568.6151777
-1070.398448
-1398.767935
-1443.757973
-1184.892552
-706.7672134
-170.6512753
251.7351977
450.9280745
419.7761301
241.2397624
36.48626773
-94.89038228
-114.3621612
-50.93326977
23.8510262
39.07683431
-36.48119948
-181.0133
-338.8912735
-458.4685296
-522.7736935
-553.849701
-590.628908
-657.8827572
-748.6076738
-831.207893
-873.435026
-862.918897
-809.843142
-734.3136991
-652.1876176
-569.2562181
-482.5137886
-383.1761915
-261.2112343
-114.2064248
42.00915312
170.4335584
225.250858
175.5971677
25.82806733
-181.7288789
-382.6453861
-513.5493052
-530.7291947
-421.1475502
-208.1444526
49.8448627
273.671547
391.3554299
367.3901963
216.5101022
-5.23043979
-224.3904844
-375.7903399
-421.4213302
-360.012001
-226.4975984
-80.73586988
13.940377
16.61262114
-74.15625108
-224.7796195
-390.982907
-544.8957305
-686.5239773
-833.0998203
-994.420786
-1151.923248
-1257.687289
-1255.142598
-1106.750005
-810.4954768
-398.4001322
76.08002538
54.82418156
-77.72530298
-253.7913176
-485.0763778
-740.7572357
-965.6532727
-1111.087137
-1161.030859
-1135.013649
-1070.644287
-999.5097248
-935.6713218
-878.5805955
-823.7728733
-768.5641393
-711.3508124
-647.5656623
-569.8106435
-472.9705096
-361.2052964
-250.8139115
-162.7583091
-109.3311821
-85.69833993
-76.28764336
-72.58998202
-84.57384357
-134.8240208
-238.9239645
-386.9884395
-540.5337788
-649.3533706
-680.5544396
-638.9797634
-562.8131993
-497.5480101
-468.0459525
-465.3985621
-455.2302268
-403.1889678
-304.0616656
-195.8931844
-145.1690122
-207.1534505
-388.3865549
-637.8900928
-873.2560422
-1021.664027
-1051.29132
-977.7807291
-848.3542337
-715.1029481
-612.9425472
-552.172351
-526.3584004
-526.6396535
-551.5970418
-604.5776021
-680.092416
-750.8969295
-771.9605773
-702.9804642
-536.757791
-311.8241283
-98.65730015
32.21094227
42.05871332
-62.18172179
-236.9908417
-428.3511194
-597.806437
-734.0813335
-844.3062215
-932.9944494
-986.204311
-975.0406522
-876.4376835
-696.5223942
-477.8900962
-282.7604041
-162.0628372
-128.9793422
-153.7779039
-184.1125476
-179.4504624
-137.3556646
-93.46201831
-94.61030068
-166.2235207
-296.8828144
-449.0151179
-584.5610081
-686.0391905
-760.6715328
-828.6805358
-906.5003375
-993.2366145
-1064.672644
-1079.543681
-999.3146836
-815.7454589
-567.3063316
-329.6907377
-179.750473
-155.1779561
-234.4605879
-347.1756967
-405.0190481
-337.6445011
-123.0250926
196.7863651
525.3539817
748.1414149
780.4020818
602.4722536
262.8170119
-146.9833215
-529.2969102
-809.3042109
-949.9676198
-953.056039
-850.8837317
-692.1955104
-527.592452
-399.4962055
-334.6668837
-340.1194652
-401.5054924
-486.5313023
-554.6354367
-573.6272739
-535.3960142
-461.1510862
-390.2220987
-358.6556816
-379.8445004
-436.4849577
-489.4300656
-497.8723583
-441.5129581
-330.7725637
-199.7799533
-87.42513478
-19.0253057
1.731857531
-11.9319958
-42.43399539
-79.45864023
-123.5880047
-180.3955641
-251.8926479
-333.4544188
-416.3889086
-493.111758
-560.0068688
-616.5159657
-662.468516
-695.5243627
-709.8365218
-697.16504
-649.3981683
-561.8857574
-435.5642077
-279.8480352
-115.8014481
23.62081422
103.4990668
103.6187295
30.41961837
-89.68789166
-228.3825279
-370.0814407
-510.72525
-645.1784523
-754.1464532
-803.1877196
-755.4681348
-593.518629
-336.7640104
-44.35308233
202.2935374
332.1729854
318.0636402
195.0967563
50.62251444
-14.91087913
62.5493072
279.134817
567.7019142
832.2308823
990.8561395
1004.638681
882.9674959
668.4853012
415.744293
174.1713205
-19.01279824
-139.9363482
-177.0010018
-132.0959794
-24.87360566
106.7256825
214.347572
256.7048027
215.450293
103.0871387
-41.46262635
-168.0550987
-237.6191456
-240.8328963
-203.7007103
-172.9807898
-187.5343421
-254.3355843
-345.0542469
-415.0304809
-429.7374802
-379.4914502
-274.9705901
-133.0592161
36.10270016
231.0455548
450.2245162
676.782005
868.3781077
965.1491797
913.769173
696.0860307
343.6806251
-66.61274547
-431.7335089
-650.306889
-655.0955469
-440.8016776
-73.78754446
327.1992518
635.0242018
763.8204881
699.2694686
496.757233
249.2439287
43.47551143
-74.52358321
-109.0176226
-96.85692186
-76.63729287
-64.85212984
-52.55034449
-20.58126251
37.83733254
106.9410223
158.2470242
172.8448636
160.187213
153.7092772
184.6594458
254.5337756
328.2318003
355.9933072
306.2796359
186.759719
40.30059263
-76.29352766
-118.4128612
-71.44907411
45.29782628
189.3016134
315.6144602
396.1599617
426.0744813
416.5386183
382.5557346
335.4402581
282.663101
230.1598633
184.124951
149.8741435
129.9104459
121.2373621
116.0164599
103.6310499
75.05507372
27.64353775
-31.277288
-85.5383193
-116.2329523
-111.1146099
-73.31962028
-25.77437194
-5.062098889
-43.61395362
-146.8211665
-280.81767
-384.2185922
-399.3504495
-303.7486542
-120.7476885
95.60992375
288.1803003
419.7344486
480.9182414
483.9482367
452.0537238
409.4831434
374.0086502
351.6558201
334.5560005
306.2409385
253.6533557
177.1517237
93.18504282
28.76187929
13.6095646
68.59008859
192.9366077
354.6038353
497.6279111
567.1129245
537.1417377
421.7901354
263.9583464
112.9827806
6.820288014
-35.89657579
-14.05185989
62.11662422
176.0629357
307.3207728
430.6942107
518.4800029
547.2992845
508.1202265
410.2910665
276.7242939
134.6631643
8.730612818
-81.51944628
-122.6028777
-108.8797526
-44.66405952
53.28878887
154.1519291
215.6872569
197.0271534
78.05364629
-124.8603749
-358.7639746
-552.6941559
-646.3752599
-615.6677313
-481.3267354
-299.2966396
-138.1736302
-53.84478166
-72.26544454
-184.3950077
-352.4896518
-522.9657174
-641.1024481
-664.7736962
-574.9760238
-380.8288806
-120.0648957
148.549363
359.9301722
463.9936873
445.4312963
330.7091014
178.2910574
54.07699673
6.852528449
54.38644772
182.323745
350.1916081
504.4920363
596.714782
603.0772221
533.1263199
421.7257022
309.6201765
225.1916975
178.4474846
166.0991398
179.3749186
206.9822217
234.4060161
246.0451744
231.3739013
189.563249
127.8919326
54.6053819
-25.01924892
-107.1183819
-181.974065
-229.7238844
-221.7952319
-131.5359979
51.15571751
304.8181359
573.6061661
781.2755864
860.6789164
781.2823131
560.0392476
250.5957519
-78.53224259
-364.9364126
-564.087147
-655.9070648
-650.1175649
-587.3393652
-525.7779821
-514.6383727
-567.2760563
-651.0968173
-699.5667047
-640.8040574
-430.3755602
-76.32849777
354.3576097
754.3057775
1014.162159
1064.757611
903.7335665
595.3907284
245.0066687
-38.96052852
-181.5789209
-164.8617646
-28.86057219
150.4221539
294.7789018
353.1736309
313.5193407
195.9036972
34.78314634
-135.8713113
-286.7820057
-389.9038936
-417.3960362
-350.4040743
-192.3174567
25.53335465
252.7546994
437.6763944
544.7447344
561.3776254
495.7488335
369.8130614
215.3868781
70.5534902
-26.83829827
-52.54166089
-9.727313873
69.87575645
142.7278379
180.5168689
186.2856438
184.5353992
193.5294983
203.3013533
179.1286821
90.7658376
-55.48452117
-207.5425311
-290.8186797
-249.2176494
-77.59795679
171.667613
409.6203652
548.7666204
540.6799596
397.3534091
186.234266
-1.796175725
-95.8217778
-78.46888315
10.42660878
102.6186351
143.3341853
120.2953635
62.4687877
15.38491427
11.26892579
50.91243096
104.4418114
129.1580453
93.40178211
-7.507107985
-151.4236969
-300.8274997
-416.2953064
-467.1876053
-438.982402
-338.3064812
-191.3270068
-34.39382854
98.54485058
186.9722526
227.3002782
227.3445591
197.7001626
146.3500743
82.46775419
23.88592086
-2.315133384
27.65746405
116.7435837
238.1746003
344.6377653
390.5048739
353.3479053
244.072052
100.7387498
-28.39233354
-105.3777622
-116.0632206
-71.39241794
0.93771105
68.37540167
103.3369222
90.02065014
29.89116505
-56.38143001
-134.3241191
-168.3895552
-137.6763493
-48.29196848
65.5008044
152.7272999
167.2970599
90.88935657
-53.74786835
-210.2388753
-315.9533619
-333.9760033
-270.4166617
-168.5481356
-84.84019595
-59.55977848
-97.82318794
-169.5023303
-229.2080726
-244.2538476
-215.7785969
-177.4024098
-173.090314
-228.3983508
-332.8973976
-443.7495212
-506.357447
-482.544227
-369.5240749
-200.8470855
-26.26576857
115.7035159
213.2156737
275.8022833
313.5479431
320.1695933
272.1628683
145.4323293
-58.70737482
-294.0575157
-472.3897304
-492.8254497
-291.8314006
114.4150781
620.4296415
1066.853021
1304.26422
1254.214519
936.700493
454.36878
-55.68404182
-474.321714
-732.7685628
-815.8270909
-745.8098084
-564.5761063
-324.9856795
-89.76692036
72.74616184
105.85432
-7.906853854
-229.6687207
-476.5756955
-661.1916604
-727.1182065
-660.430402
-477.2555892
-206.0798161
123.1742847
478.8593206
817.6954584
1076.892657
1180.852994
1070.3084
741.0111645
266.9811787
-215.4345199
-557.8230519
-661.2600722
-516.5562795
-204.8535725
140.7049504
391.1180964
469.0922036
369.2505491
148.8294101
-103.1024332
-300.5754037
-387.6207358
-350.0107735
-210.9796005
-15.56367415
188.2161269
362.2357092
483.9391737
543.6177411
539.7586007
475.6252405
361.6437624
217.8757688
73.36173117
-41.1059169
-102.9824309
-106.7107389
-65.74201305
-8.100502776
33.1630253
30.92229608
-25.89417119
-124.1909052
-225.7099817
-277.5288861
-233.9084875
-79.82984573
154.438009
397.8545644
562.9712452
581.1043201
431.6040162
153.4144026
-167.1784533
-426.2583304
-542.8303894
-493.0752288
-322.0767133
-124.4157033
-1.714116603
-18.77743632
-177.6355318
-419.2770596
-649.5878314
-777.1101434
-747.3205826
-561.6543809
-274.9233369
25.33276713
250.2732217
339.377421
280.9533311
113.7326322
-90.71610015
-258.3307455
-339.1293915
-317.7438455
-209.0985618
-45.54143557
134.0353923
292.2496377
397.996823
431.3234203
388.0617537
283.6769901
152.1482253
37.77191658
-19.68504809
-1.281357793
81.76246511
191.5151391
278.7155923
302.9698733
247.000536
120.41625
-44.30818482
-202.4299751
-311.7161046
-348.1603994
-314.8371165
-236.9817154
-146.9909916
-69.80161637
-18.46906462
1.489709217
-11.22324988
-48.77157034
-86.75240196
-86.67639583
-16.28458791
124.7716582
293.6362708
421.6561969
449.15253
355.0199731
161.3618435
-82.78234788
-324.7305652
-524.2608309
-659.9109529
-729.8332983
-747.1991581
-731.653425
-698.1310744
-647.6587812
-565.9553505
-430.035498
-221.8400667
57.30571937
376.9932672
680.5957514
900.889669
985.5465481
918.9191949
730.1626208
483.4728813
256.145015
112.4738133
83.17643148
157.3374339
288.8895146
415.2330051
479.4946534
451.3868604
336.5818868
171.5814527
5.931249845
-119.9931898
-191.2743224
-220.4866611
-231.6558409
-236.8364949
-222.6264996
-159.5484571
-27.17748587
165.4814861
378.2451808
556.4854652
652.1479727
637.7568259
509.5991243
289.7342957
28.28437714
-201.4834699
-326.8690529
-309.7136663
-167.1102995
38.79845147
234.5603157
369.5755621
428.9054905
423.6909921
372.1410172
286.1235401
170.3798414
31.55434885
-112.7428398
-232.6016386
-295.6117649
-286.0192685
-219.9752863
-142.6254686
-103.7453949
-125.1999997
-184.3905495
-227.3167724
-204.4422785
-104.356879
35.86712362
151.0888294
182.9030428
110.0981475
-41.23488958
-210.3200871
-330.003435
-354.4969493
-274.799685
-117.2770505
71.56979287
243.0884866
360.5077204
402.7606749
362.3952557
245.8304589
77.69126269
-95.29636034
-214.2376297
-231.8366375
-140.1370474
17.17722968
158.5868061
201.1439014
103.0293371
-112.2880911
-364.4467145
-553.7798928
-606.8596551
-508.4786718
-303.7093472
-73.18815919
104.7405928
185.7988439
171.7404048
102.2120831
30.98158475
0.67400573
25.75959673
90.3572552
158.362828
189.8212451
157.5880869
59.45521877
-77.77049969
-205.9227011
-273.5342379
-246.6605523
-122.1205856
71.9461645
285.9820055
464.6064384
562.7808701
557.5870855
452.2265296
272.0316882
57.30521135
-145.1933232
-292.368546
-358.0385638
-343.5012476
-276.5025096
-196.5127224
-133.5567459
-95.0815475
-67.93180411
-32.5521406
22.01236127
93.27924845
168.6230642
229.0978565
249.9798136
204.2724658
76.09170652
-120.8725162
-335.5329455
-492.0495954
-520.3402607
-388.3154258
-119.5838454
212.2033611
509.4965688
684.5889652
687.2260112
518.9346166
233.289933
-78.91012252
-316.3015998
-400.7233198
-309.6555476
-94.80461906
129.9432562
232.3194258
120.4584188
-216.0660318
-702.860607
-1213.675936
-1620.649117
-1837.989009
-1842.747519
-1670.63255
-1394.516958
-1095.448426
-835.1240279
-636.8210824
-485.5013084
-350.880167
-219.76433
-108.2766965
-41.44154792
-19.33936376
-4.978603588
50.81913306
166.1487158
303.3971003
383.2555019
334.3203797
142.769102
-132.7005191
-389.299596
-530.8757189
-509.3758151
-341.9348074
-100.7050117
119.5232589
242.7323549
241.87753
143.4193855
4.091469536
-121.1700244
-203.2358946
-241.2201596
-247.377369
-227.7141159
-172.9241961
-68.08586199
86.36055083
259.2227131
394.4482475
438.2074816
370.5994299
220.5298339
50.771851
-76.12251115
-130.5656524
-127.5985699
-112.8467507
-133.3936897
-209.7064135
-322.2483551
-420.4491845
-447.775762
-370.9713245
-198.4585497
21.67387924
223.0770311
350.8002266
384.1829449
340.5388702
260.955047
186.8723024
141.2683821
121.7601534
107.6647892
73.9911075
4.278939974
-102.1066526
-228.1185801
-341.556947
-401.7866913
-373.6379829
-245.5103934
-43.32171402
172.074576
328.0811432
373.3407578
302.8192274
159.7753378
12.89117056
-77.73463686
-86.63324086
-28.92017467
53.96720504
117.3905504
133.8686421
103.1245782
49.73324252
10.2104456
15.69070088
77.64405242
181.084789
289.0721953
357.1275693
353.1207721
272.7333665
143.1435721
10.25846935
-84.02817503
-121.4482554
-113.7986387
-93.18646899
-93.01494313
-131.9781858
-206.2117538
-290.9345435
-349.063724
-345.4122741
-263.0509431
-114.4700147
59.62012082
206.3913187
284.3733053
281.8393526
220.5415668
143.1423963
92.67523528
94.65602917
147.6566822
223.3523037
274.5284171
253.0372022
135.0568064
-60.53636078
-273.9287007
-430.2673573
-473.7477172
-390.9871319
-214.9092589
-10.24230314
150.537033
212.0141267
152.2186563
-13.94633029
-242.7143601
-475.3057582
-653.2682582
-732.7052038
-693.9685221
-545.6062443
-320.4975085
-66.73567116
163.1339231
322.5118273
381.634729
336.903621
213.1609967
54.30166462
-94.91392281
-204.8943866
-268.7852774
-296.9740171
-303.6636423
-296.124824
-274.2525975
-241.1291487
-211.3140777
-208.0296865
-247.3465944
-324.4740191
-413.231687
-480.7700598
-506.5332196
-490.1813108
-446.4062804
-392.1602047
-336.5077374
-277.3215483
-203.6288501
-101.4699451
38.76187047
213.2067405
397.9891579
551.3356666
627.5030449
598.7160643
471.2201913
284.1455369
90.92045249
-62.25673508
-148.597645
-160.7622432
-107.2393205
-10.22195793
96.66883267
175.5570921
195.7723177
145.1811461
35.51175803
-100.6336807
-219.1255213
-278.0762809
-251.6167132
-138.2034225
38.09085706
234.0783721
400.5411485
498.8763437
515.9593954
467.2286824
384.0133252
294.4123781
209.1833793
122.2731775
24.34551016
-79.81717965
-160.9245272
-172.6069285
-74.97056668
137.7921739
424.572603
708.7770307
910.7787487
980.9069122
916.095753
752.7356623
544.458058
339.4582464
167.9100999
41.39845747
-38.55177314
-69.81352358
-44.07235846
49.6240512
211.5660665
418.1996455
619.6103877
753.8248305
772.6762217
664.9095315
461.1047511
219.4049452
0.2336253
-153.4121078
-222.1163384
-203.1541747
-100.3292185
80.17650415
323.8953583
598.7576947
848.8918826
1003.222162
999.1517175
813.6397024
478.7292091
72.77208228
-308.8055702
-584.0489121
-704.0955598
-660.3500603
-481.9995397
-226.1652476
37.86939526
247.4869266
363.0889062
376.3700836
309.8620778
206.28297
111.2927625
55.96008025
47.00329771
69.69594851
99.97611982
119.749449
126.343273
131.2275004
149.0021788
184.6846435
227.1268756
254.8807503
249.917847
210.7289674
155.1200892
109.0586508
87.05346296
78.73775642
53.64346772
-16.32732081
-134.2951613
-271.1808742
-378.7219012
-415.0591437
-367.8662555
-262.0383461
-148.0506345
-78.00038235
-81.79315316
-155.0280958
-262.5387495
-356.9548166
-403.5775746
-395.9921967
-354.5602782
-307.8002874
-273.4397491
-250.2761422
-227.3503309
-198.3427141
-168.5047625
-148.3968675
-142.4209079
-142.120906
-129.7087611
-86.73333566
-3.599332424
114.4095946
247.194254
367.9497083
454.44635
494.5595151
483.9251826
422.2326836
315.7790288
184.4175669
62.74386599
-9.507525358
-5.286603883
72.92603888
190.7770287
297.9198168
355.5750605
357.889836
334.7197662
332.4766895
383.6353934
484.4929443
596.9449328
674.498359
693.6116822
665.6325343
622.6612134
590.5301439
571.283703
546.0025699
491.8435748
398.5933341
274.9792509
143.3687343
28.88239643
-49.50774238
-80.88251374
-61.5845304
3.8596093
100.293159
201.3488474
274.466493
291.4388143
240.621464
133.4621728
-0.996637081
-132.3673537
-242.2383621
-326.6511073
-388.0499586
-426.7430047
-438.9554644
-420.8593703
-375.7090879
-317.3176048
-265.426529
-233.7681865
-220.1673961
-205.7909909
-167.0241979
-90.7867646
15.29558091
126.6004899
216.1410026
270.5974627
296.270199
308.6952724
316.9733891
314.8677249
284.9281834
212.0758744
97.61716838
-35.26699626
-150.1010724
-212.7425572
-202.5283382
-113.029732
52.05945367
276.9305052
526.0378288
742.3404675
861.2923901
837.7903632
669.4818322
401.7473669
110.0406419
-130.1123147
-270.8793128
-305.4288774
-261.6824635
-183.577781
-111.4723432
-72.30060843
-80.32814749
-140.4258143
-246.84566
-377.6431923
-494.3419079
-554.4686672
-531.3634442
-427.945634
-275.7202065
-119.2018923
3.559193097
73.11992588
88.75893392
60.35636134
-0.884042642
-85.17818982
-179.7196828
-263.9018193
-311.9970446
-304.8506945
-242.6492528
-147.4734529
-52.53195285
16.14660158
52.17348025
68.848106
86.27995863
115.116965
147.642691
162.5960826
139.8268802
75.12899799
-14.98924775
-102.4177494
-159.5818629
-168.7582804
-124.7064461
-36.27053112
73.11542946
168.4856201
212.2552738
177.3716962
59.07637431
-120.5740683
-318.4273742
-483.5810136
-575.4168034
-578.1919166
-507.2277562
-400.7820633
-301.3243701
-235.9683478
-209.1697147
-210.4341608
-227.7004033
-254.2139267
-286.5574069
-319.1328315
-342.807222
-347.5765553
-327.9324324
-287.2962035
-238.7084586
-198.4054541
-175.1834686
-163.851133
-150.0782521
-124.5821611
-93.5628525
-77.15154316
-93.45577922
-140.3914391
-188.8020303
-193.5837514
-118.2728433
40.40003512
243.9947444
427.3033431
531.2742363
531.8463954
448.7180382
328.6176099
216.3670705
130.9635056
61.65293857
-16.23992716
-116.8108724
-227.5589183
-313.3397953
-337.5831152
-283.526894
-162.0471435
-2.597398313
162.9192198
310.3798224
420.8647173
471.9172973
436.906404
297.6215837
64.08857295
-217.8941327
-478.0077176
-649.2607395
-694.5224994
-618.6453328
-461.1663322
-276.7281511
-114.2868425
-3.473528592
46.42320751
39.30775821
-15.98990146
-106.7956183
-213.3868656
-307.6576781
-362.8565421
-368.6893815
-341.3149956
-316.9729092
-328.6972591
-384.5971193
-460.5887837
-515.7554887
-517.9285765
-462.6760555
-373.7969261
-286.5317705
-226.3553727
-197.1353431
-185.8628006
-177.9896219
-170.4929513
-173.1620793
-199.7475962
-255.6632622
-331.272242
-404.9503574
-453.473226
-463.0435739
-433.702467
-373.4367733
-289.1507621
-183.002342
-58.02099947
72.38715363
181.5858089
238.0623403
222.7598038
142.2371733
29.00666606
-73.63749152
-133.125743
-143.2901255
-124.6157813
-111.360149
-134.6453983
-207.7172762
-318.5970542
-432.2142488
-504.9609979
-504.8050894
-427.1559664
-296.6719473
-157.0040912
-55.08834017
-25.6550586
-80.93212905
-207.2253244
-370.5718237
-529.461687
-646.7421805
-697.5329525
-671.3863355
-571.1879963
-410.0112921
-208.1614038
8.549625318
211.1094293
372.8809537
477.5602814
523.2911168
518.3214917
470.6805901
381.6941564
247.6651269
70.47396347
-130.4563348
-315.7809975
-437.8061449
-459.3549602
-371.8885692
-203.3483211
-13.31040406
127.3683502
163.9099811
82.07302578
-85.30266161
-274.0941519
-418.7450335
-480.8446472
-462.0429716
-395.932814
-327.6869096
-292.7563449
-305.5057068
-358.0397338
-428.8238577
-494.9306
-541.831731
-563.8096117
-557.7443985
-518.0470546
-440.1814014
-329.3192536
-205.9758975
-100.3486466
-37.71010511
-24.47799841
-41.3267996
-46.87370667
8.981429594
165.4138525
429.3570711
762.7666357
1087.589805
1314.571968
1381.761083
1282.687936
1066.262806
805.8211255
558.7667102
342.8853707
145.545968
-44.4701915
-210.44552
-309.5484005
-301.3260293
-181.3676415
6.773765453
190.5755794
304.4800299
316.4820624
233.5471976
88.61793366
-75.87436002
-219.411603
-308.0920445
-317.424175
-238.6328893
-84.44385269
112.1093838
308.448643
467.0198999
565.2647542
597.5014263
571.1050117
499.9571019
400.6175975
290.880472
189.6494165
114.4689738
75.78993173
70.50417325
82.25738042
90.47180821
82.64612037
59.71296396
32.54787551
13.02412797
8.431481881
20.66972669
47.87134674
84.95352585
124.0541782
157.4594497
182.9870431
206.5170606
235.5049801
267.0837785
281.2999243
249.7056113
155.2978858
10.34085141
-141.5126205
-241.4266438
-241.0192001
-124.7145422
79.52909293
307.2113655
483.4350822
558.7426381
534.5416201
459.6258818
396.4868766
380.1753958
398.2006275
404.7789747
358.0185889
253.9969875
132.9063343
54.22650056
59.55333597
148.4152307
281.7365723
405.9615474
483.1919737
509.126588
512.0344516
534.4499921
608.3023492
735.8801697
884.061196
995.0366139
1011.785652
904.3152268
682.4087447
391.0101935
92.82224322
-149.6075773
-289.6502249
-307.499879
-215.2247609
-52.8455666
124.8345649
263.7946143
324.4678704
291.2228513
176.242181
16.78484989
-137.1370453
-242.2392139
-280.514369
-265.2461929
-228.8243787
-199.352113
-181.8565804
-156.1991576
-95.34527428
9.398870648
133.5066104
227.6327176
244.8919357
170.07579
31.73663218
-110.8744576
-198.4281018
-202.2091611
-135.3752397
-38.01872906
52.35645366
122.1781981
180.376404
240.9027385
306.3204351
361.531926
380.9648803
341.6114703
235.4454576
77.41019558
-94.22315183
-223.5359066
-251.9747514
-140.3259074
111.5610045
457.0161011
811.6646936
1077.458413
1174.570749
1070.628838
796.5024479
439.4812397
116.7212555
-66.05760943
-56.29322815
121.8792994
373.9956027
574.2139861
621.1851676
485.8180019
223.9889766
-51.85688027
-228.7593484
-245.9501065
-118.4345412
78.77286208
253.5814663
339.6013173
315.9442475
200.3906247
30.33170908
-153.7380173
-316.8946784
-435.9444889
-504.1410514
-529.7682059
-525.5717822
-497.3576902
-442.5301617
-359.585367
-254.4750122
-137.312666
-10.87906667
133.5019756
306.5495033
504.3203007
695.467743
826.8689908
847.7677696
738.2664481
521.1120675
249.6365773
-20.01964478
-251.1980824
-432.4745686
-569.9808851
-673.771941
-748.5085193
-787.0002241
-769.236206
-667.2788635
-461.634007
-166.1973998
156.7771647
406.43264
481.4789656
325.0126144
-46.01559994
-540.207735
-1017.040944
-1329.009192
-1371.785709
-1125.868246
-671.4512965
-162.0579108
239.3213096
428.562401
398.9196985
229.3089427
34.73334172
-90.07873392
-108.5899602
-48.30515536
22.71640163
37.22052933
-34.58597924
-171.9004276
-321.9646787
-435.5632215
-496.6251679
-526.2107897
-561.1204955
-625.0141419
-711.2489674
-789.7168142
-829.8405349
-819.837404
-769.4428726
-697.6686881
-619.6130727
-540.8415573
-458.4018817
-364.0249178
-248.1648146
-108.4256246
40.03983033
162.0289059
214.126155
166.9338148
24.61548111
-172.5903282
-363.4851095
-487.8488834
-504.2012286
-400.11106
-197.7220175
47.47751304
260.1407813
371.947017
349.1660215
205.802733
-4.857234649
-213.1311183
-357.0208221
-400.3345305
-341.9938247
-215.1387013
-76.6160054
13.3179064
15.89293983
-70.40461627
-213.5185012
-371.4565282
-517.6873187
-652.2711665
-791.5415716
-944.8235349
-1094.473464
-1194.980007
-1192.559901
-1051.528251
-770.0607029
-378.5061025
72.39940202
55.17013684
-78.88076043
-257.1639861
-491.1367547
-749.9357228
-977.5103005
-1124.704608
-1175.232182
-1148.908711
-1083.662087
-1011.755504
-947.1742462
-889.3971424
-833.910309
-778.0473946
-720.1104807
-655.6182514
-576.9275161
-478.9108892
-365.8377184
-254.1106423
-165.0169462
-110.9448154
-86.99472308
-77.4906651
-73.74325185
-85.88887214
-136.7318579
-242.0565173
-391.8507938
-547.3230807
-657.3922039
-688.9654342
-646.886231
-569.8019747
-503.8091756
-473.9656424
-471.2571139
-460.9651758
-408.2646794
-308.0054381
-198.5184688
-147.158655
-209.9078252
-393.3099535
-645.8525039
-884.0156487
-1034.193313
-1064.150878
-989.7740394
-858.7808863
-723.9432541
-620.5516351
-559.0526035
-532.9727655
-533.236391
-558.4855543
-612.1544613
-688.5119877
-760.1996396
-781.4988027
-711.6685683
-543.5177625
-315.8362023
-100.1545061
32.25847122
42.25002049
-63.16251587
-240.0926897
-433.7346047
-605.2579586
-743.1709889
-854.728352
-944.3781007
-998.3450366
-987.0192304
-887.2071467
-705.2017748
-483.893417
-286.4242248
-164.2704784
-130.7866899
-155.9110995
-186.6271658
-181.8382102
-139.2633113
-94.87223225
-96.03840809
-168.5103541
-300.7107652
-454.6615414
-591.8019159
-694.5802187
-770.0440892
-838.8725355
-917.6444276
-1005.378578
-1077.767443
-1092.723359
-1011.582544
-825.827892
-574.3849386
-333.9032329
-182.134456
-157.2941151
-237.52017
-351.6227409
-410.1623983
-341.9470724
-124.7953556
198.829918
531.374586
756.8128605
789.4888574
609.3979844
265.7009203
-148.9947136
-535.9545444
-819.2985775
-961.6028943
-964.7849022
-861.3876359
-700.7133735
-534.1916942
-404.5789664
-338.9817895
-344.4265219
-406.6471933
-492.6374834
-561.5566322
-580.7745751
-542.0882867
-466.974292
-395.1428331
-363.271447
-384.6338391
-441.9992179
-495.5707602
-504.1403809
-447.0841603
-335.0626177
-202.5090121
-88.69644123
-19.51541746
1.508067191
-12.37485458
-43.21195964
-80.68925151
-125.3291212
-182.7861997
-255.2147762
-337.8137384
-421.6528738
-499.2876505
-566.9695555
-624.1838369
-670.6493485
-704.1219354
-718.6339589
-705.7570848
-657.471302
-568.9151634
-441.0686929
-283.4608181
-117.4827212
23.63060771
104.4980256
104.6360909
30.54896473
-91.09914777
-231.4412813
-374.7733893
-517.1308261
-653.1995694
-763.4791068
-813.0893567
-764.8232441
-600.8784497
-341.0248562
-45.16354947
204.4189692
335.8577801
321.6141137
197.1803457
50.90970952
-15.37996225
63.02134703
282.2140153
574.220009
841.9300436
1002.386737
1016.358997
893.2290351
676.2840979
420.4375927
175.9816685
-19.51514312
-141.919347
-179.4152297
-133.982538
-25.4419935
107.7159245
216.6810326
259.5152547
217.7993086
104.0760497
-42.23674864
-170.3890071
-240.775084
-243.9631513
-206.4487679
-175.3470774
-190.048785
-257.6743167
-349.4905544
-420.2666478
-435.1820685
-384.3360683
-278.5825781
-134.8993882
36.2272749
233.5155594
455.3653745
684.5348236
878.5363319
976.4444694
924.4733817
704.1686215
347.5220649
-67.67416897
-437.1941225
-658.4260235
-663.2405659
-446.3453879
-74.97652818
330.8903417
642.3527035
772.6741595
707.3517697
502.3954482
251.9494976
43.73971509
-75.68096709
-110.605167
-98.32098819
-77.81769211
-65.93426553
-53.43899241
-21.10533313
38.0272566
108.0010573
159.8280061
174.581861
161.8497842
155.237945
186.5783235
257.3023492
331.9356388
359.9789183
309.714296
188.6852306
40.49511808
-77.49866682
-120.1550075
-72.58977821
45.53769906
191.2815722
319.1028658
400.5772554
430.8553709
421.2133173
386.8290426
339.1855962
285.7811831
232.6884803
186.0544285
151.4105013
131.1524613
122.4567587
117.1057772
104.5513562
75.66214261
27.69462388
-31.93787001
-86.84158328
-117.9406581
-112.7251366
-74.45377591
-26.33762905
-5.414846422
-44.38657391
-148.8665669
-284.4704525
-389.0885535
-404.4459065
-307.6920791
-122.4572084
96.45676854
291.3295473
424.5257654
486.3957365
489.4714073
457.1998502
414.0758313
378.194506
355.6124654
338.2890438
309.6304666
256.4064008
178.9566086
93.96228426
28.85102121
13.41576105
69.09636758
194.9506944
358.5607317
503.332002
573.6166884
543.2933065
426.6438037
266.8382812
114.0359706
6.622607211
-36.61380268
-14.45705746
62.5608058
177.8851338
310.7285142
435.5805687
524.353949
553.6123522
513.9262938
414.9204545
279.7657315
136.0545951
8.599592745
-82.71242672
-124.308117
-110.462925
-45.50248937
53.6699703
155.7216878
218.0269467
199.1171009
78.72604055
-126.5894716
-363.348863
-559.5598416
-654.4302834
-623.3401469
-487.335152
-303.1711534
-140.0645738
-54.77909308
-73.44119332
-186.8729103
-357.0096718
-529.4427464
-649.0255424
-673.0605521
-582.1071744
-385.6887661
-121.7690058
150.0343105
363.9716032
469.3592906
450.472575
334.3622192
180.1590146
54.45223
6.661434986
54.76450999
184.2086655
354.1034548
510.210084
603.591638
610.0731988
539.2705891
426.4987367
313.0473218
227.656019
180.3178512
167.7720989
181.2549744
209.216407
236.9326652
248.7104121
233.8875485
191.6209302
129.1283083
55.01074555
-25.56141857
-108.6273916
-184.434792
-232.7210982
-224.7470775
-133.391991
51.46400701
308.1998824
580.228626
790.3520885
870.6782461
790.3882742
566.4265628
253.3457964
-79.74824129
-369.579966
-571.1559668
-664.0095722
-658.2354715
-594.6798244
-532.3686557
-521.0106964
-574.3200619
-659.1497766
-708.2589087
-648.7878401
-435.7725896
-77.49515277
358.2710562
763.04069
1026.042223
1077.208829
914.259457
602.2436299
247.6596798
-39.71305925
-184.0186568
-167.1163237
-29.50729989
151.9270985
298.0489998
357.1014588
316.9784961
197.9421125
34.87781337
-137.7560098
-290.5336541
-394.8514286
-422.6268959
-354.8760968
-194.9150223
25.55584925
255.4543551
442.6539595
550.9503088
567.8252525
501.3865383
374.0211015
217.6558934
71.10299082
-27.41658803
-53.46844811
-10.10758396
70.42905427
144.1251903
182.40967
188.2273899
186.461159
195.5644182
205.4594672
180.9535904
91.61385835
-56.43746546
-210.3379553
-294.6409438
-252.4841788
-78.77558755
173.4127012
414.2579162
555.0631717
546.8359699
401.8464679
188.2115734
-2.095332148
-97.26472063
-79.69276745
10.28535386
103.5724746
144.7609553
121.4535088
62.95557846
15.23464012
11.12039186
51.20341557
105.3716235
130.3779625
94.28424829
-7.911803999
-153.553315
-304.7200915
-421.5470382
-473.0254728
-444.489955
-342.6493311
-193.847958
-35.05238801
99.47790605
188.9731383
229.7140329
229.8285004
199.7976467
147.8076544
83.16956182
23.88501946
-2.58176581
27.71526542
117.812083
240.7209458
348.4671953
394.9267202
357.3285242
246.667662
101.6721316
-29.0166868
-106.9454628
-117.7490347
-72.58911255
0.644851894
68.90914214
104.275633
90.79970781
29.98882816
-57.362719
-136.2023586
-170.7145982
-139.6061839
-49.18949489
65.97241494
154.2747744
169.0156953
91.68537134
-54.67168298
-213.0202338
-319.9846756
-338.2614439
-273.9020224
-170.8884995
-86.17721309
-60.50950215
-99.26884083
-171.8472475
-232.1873438
-247.406259
-218.6305929
-179.7940896
-175.4729425
-231.4266114
-337.1580138
-449.3115816
-512.7393669
-488.5807833
-374.2386896
-203.5183046
-26.86700615
116.7532271
215.514421
278.7837161
317.0167634
323.7374395
275.0996725
146.8735313
-59.66838475
-297.90702
-478.3330953
-499.0346581
-295.6030506
115.5037719
627.5927361
1079.326904
1319.609045
1268.919986
947.6621889
459.531746
-56.63936489
-480.2772772
-741.8400296
-825.8842618
-755.031693
-571.6142529
-329.1329946
-91.13052995
73.36509646
106.8351902
-8.305365045
-232.6760356
-482.5828136
-669.3406377
-736.1024014
-668.6100547
-483.2572338
-208.846778
124.3860746
484.2797651
827.1889035
1089.483465
1194.713211
1082.789198
749.6435967
269.8892358
-218.2792385
-564.807363
-669.4613538
-523.0633971
-207.5957388
142.1265843
395.5641163
474.4018747
373.3670272
150.3130177
-104.632281
-304.4275988
-392.4886382
-354.4695825
-213.8114825
-15.99369787
190.1848048
366.305529
489.406715
549.8751838
545.9393514
481.0483074
365.6986445
220.1964001
73.94725674
-41.85925532
-104.4962843
-108.2295826
-66.76477991
-8.464340559
33.31010954
30.98553237
-26.48929459
-125.9742775
-228.6881295
-281.1756318
-236.945014
-81.07682136
155.9914461
402.2723579
569.4489993
587.7651129
436.4982161
154.9733939
-169.3740579
-431.6387047
-549.6194207
-499.2227749
-326.2316425
-126.2096611
-2.070945153
-19.29097703
-180.0324669
-424.5424546
-657.6878894
-786.7031771
-756.5554245
-568.6392371
-278.4724795
25.43077952
252.9891516
343.1823994
284.0217576
114.8438267
-92.07857679
-261.7540372
-343.4567159
-321.8366581
-211.8257144
-46.34214546
135.379859
295.4619087
402.4939173
436.2170994
392.4217358
286.7845645
153.6949242
37.94424055
-20.1904762
-1.573462597
82.45391123
193.4899761
281.7175616
306.3686664
249.649556
121.555544
-45.16939241
-205.0960492
-315.7199958
-352.6084709
-318.8886041
-240.1074273
-149.0090821
-70.91224071
-18.99033653
1.227288746
-11.64002513
-49.60309893
-88.0229844
-88.04651262
-16.75223505
125.9321961
296.8423438
426.411036
454.2920537
358.9827764
163.0157811
-84.04054416
-328.8968704
-530.7884548
-668.1079694
-738.9064997
-756.4405371
-740.7306508
-706.7242943
-655.6998657
-573.0239453
-435.4612486
-224.728368
57.67981508
381.1990336
688.4552145
911.4244376
997.0709155
929.6322313
738.6117851
488.9831392
258.9142323
113.5338456
83.87406751
158.8846165
292.0633404
419.9522337
484.9792015
456.4791799
340.3437691
173.4144869
5.726301839
-121.6969687
-193.8722014
-223.3667975
-234.7178996
-239.9440818
-225.543589
-161.7587015
-27.78626257
167.1668096
382.5187265
562.8425557
659.6916005
645.0906742
515.4084462
292.8879434
28.34876799
-204.1480459
-331.0047136
-313.6850064
-169.3993665
38.91237905
237.1247179
373.7463628
433.7060019
428.4932695
376.3583872
289.2538693
172.0984007
31.71594609
-114.363838
-235.6720336
-299.4664482
-289.7516447
-222.8669489
-144.6237366
-105.2243427
-126.940412
-186.8528364
-230.3121823
-207.1277415
-105.9288819
36.02806332
152.633785
184.786284
111.1030762
-41.99361219
-213.06871
-334.2633715
-359.0316995
-278.4060722
-118.8994177
72.16340535
245.7019958
364.5581668
407.2666347
366.4827393
248.5263764
78.37614913
-96.73254652
-217.1031797
-234.9155426
-142.1371063
17.08997364
160.2230079
203.2882255
103.9935265
-113.8769749
-369.1626957
-560.6694879
-614.4620146
-514.8301548
-307.5961401
-74.32497207
105.7679122
187.7044684
173.5064497
103.1121944
31.08363353
0.392896396
25.76284313
91.14968113
159.9774579
191.812798
159.1899212
59.91313494
-79.00435059
-208.7104741
-277.0701355
-249.8891905
-123.8106781
72.49681535
289.1384755
469.8909066
569.2955975
563.9870094
457.3380576
275.0292109
57.71294783
-147.2287483
-296.1464423
-362.6232228
-347.8912313
-280.0979979
-199.1302341
-135.4618756
-96.53402208
-69.02643746
-33.16634111
22.00225291
94.0813836
170.3745167
231.5729311
252.7204772
206.424121
76.74623719
-122.6562367
-339.8955486
-498.2607402
-526.8979726
-393.2274739
-121.2393256
214.4594023
515.2850055
692.553557
695.1999433
524.8725892
235.808759
-80.12889628
-320.4017824
-405.7911514
-313.6756522
-96.20357232
131.1829205
234.8265094
121.6609479
-218.9185195
-711.5820049
-1228.500445
-1640.340077
-1860.306279
-1865.106297
-1690.969754
-1411.522004
-1108.874078
-845.3767967
-644.7005131
-491.6008713
-355.3854606
-222.6680014
-109.8472581
-42.22471078
-19.82971345
-5.275549614
51.16435463
167.8876971
306.7425208
387.5827306
338.046668
144.1974639
-134.5390068
-394.2414575
-537.5230635
-515.7610964
-346.3280923
-102.2001629
120.6948116
245.3376664
244.509438
144.8063348
3.887447515
-122.9299121
-205.9594636
-244.3705971
-250.6458897
-230.7617814
-175.3068743
-69.18101535
87.0651866
262.0650849
398.9407081
443.1537178
374.7496054
222.8317437
51.09360549
-77.28698238
-132.4042551
-129.3863171
-114.4733137
-135.2857867
-212.4823502
-326.4253134
-425.7727425
-453.3912912
-375.6994999
-201.1296265
21.67189887
225.4737846
354.6807592
388.4891788
344.3290996
263.8270305
188.8238082
142.6757368
122.8839937
108.7368214
74.60071868
4.064930059
-103.6467598
-231.1386057
-345.9298493
-406.8840025
-378.4296789
-248.7472289
-44.13794571
173.9112682
331.6953142
377.5251347
306.1611433
161.3894088
12.73977418
-78.93902003
-87.96137599
-29.53997347
54.34653765
118.5362918
135.2017748
104.0668057
50.05311071
10.04898568
15.62440152
78.30089465
182.9717602
292.2328332
361.1889562
357.0629622
275.7394316
144.6403548
10.12805129
-85.32757759
-123.199713
-115.4560359
-94.56697138
-94.39180743
-133.8211829
-208.9677737
-294.7029176
-353.5294906
-349.8468133
-266.4423396
-116.1219907
60.07776144
208.5595063
287.4796686
284.9554472
222.8862138
144.5824503
93.56415358
95.50793116
149.1403628
225.7570121
277.5455621
255.8457916
136.3737635
-61.52709622
-277.4732518
-435.6720211
-479.6883809
-395.9578504
-217.7689852
-10.68965121
152.037491
214.2993563
153.8004681
-14.39684048
-245.9341342
-481.287993
-661.3802998
-741.7323496
-702.5072893
-552.3741944
-324.5704031
-67.83664821
164.8042818
326.1047827
385.9292963
340.6450763
215.4358777
54.64713992
-96.32835894
-207.624939
-272.2864854
-300.8250711
-307.5734551
-299.9544555
-277.8666587
-244.2947339
-214.2148151
-210.8002898
-250.5882734
-328.6179725
-418.3567662
-486.8177502
-512.9160978
-496.3299849
-451.9890123
-397.1245076
-340.8233268
-280.9154678
-206.3700237
-102.9621495
38.95692079
215.4548166
402.50938
557.6620749
634.7518746
605.5458449
476.5494341
287.241122
91.7339868
-63.29649106
-150.649716
-162.9578777
-108.7833878
-10.61341649
97.57194447
177.3452131
197.8541678
146.674029
35.6465137
-102.1089375
-221.9941692
-281.70748
-254.9450873
-140.1939788
38.20755197
236.6639016
405.0443377
504.5951322
521.8962526
472.5616241
388.3194315
297.6881735
211.422778
123.4728437
24.32146516
-81.04004806
-163.1009765
-174.9937592
-76.16708635
139.1746918
429.3336258
716.9969299
921.4160778
992.3713711
926.8179845
761.4670904
550.6879215
343.2454458
169.6273528
41.60584906
-39.3111709
-70.95775129
-44.81947628
49.95928739
213.815087
422.9130317
626.790368
762.5649913
781.6719419
672.6043937
466.372991
221.7188736
-0.035720534
-155.5590842
-225.0325741
-205.8695623
-101.7845714
80.84503448
327.4863282
605.655367
858.8081711
1014.918797
1010.880293
823.0949256
484.1685128
73.37456415
-312.7741573
-591.3485621
-712.8061407
-668.5041427
-488.010493
-229.1376464
37.98857813
250.1617464
367.1599134
380.5913772
313.2596169
208.4881064
112.3394169
56.33828001
47.3082859
70.2626227
100.896477
120.9208901
127.5967887
132.5255166
150.5209098
186.63427
229.5732266
257.6590893
252.6245849
213.0117581
156.6920944
110.0358839
87.78890851
79.37696045
54.0401965
-16.81683446
-136.1864773
-274.7141517
-383.5283083
-420.3169907
-372.5344055
-265.4360633
-150.1054454
-79.17621972
-83.0520219
-157.1440565
-265.950713
-361.5543778
-408.6838991
-401.0754295
-359.0490637
-311.7998487
-276.9524845
-253.5491871
-230.3241014
-200.9596178
-170.7651232
-150.4464459
-144.4151083
-144.0810557
-131.5748665
-88.07970542
-3.973587704
115.4866223
249.8514199
372.0728608
459.583246
500.2203315
489.4433037
426.9682471
319.2981099
186.3173714
63.18599376
-9.901989796
-5.648376946
73.5396518
192.7944021
301.2374854
359.5538973
361.8982872
338.4525318
336.1553174
387.9477808
489.9925631
603.7709593
682.3163083
701.6293249
673.28829
629.8077868
597.3308049
577.8456117
552.2854773
497.4715786
403.0890218
278.0027375
144.8660945
28.92744048
-50.35842377
-82.13428136
-62.61603111
3.637600866
101.231901
203.5027681
277.4539872
294.6547736
243.2329733
134.8015863
-1.363641615
-134.254476
-245.4226131
-330.8450313
-392.9982268
-432.1537629
-444.5378573
-426.1430739
-380.4424012
-321.4304852
-268.8579741
-236.8800984
-223.0782864
-208.538899
-169.2771915
-92.18301165
15.15670611
127.8472286
218.453314
273.5696835
299.5469971
312.1404663
320.4689116
318.3339442
288.0593191
214.3445116
98.4996404
-35.96357354
-152.1975557
-215.5505254
-205.2269766
-114.6650759
52.38395636
279.9601211
532.0659389
750.9591343
871.3301642
847.5017902
677.2451271
406.2887957
111.074558
-131.9302181
-274.3997856
-309.3716291
-265.1276852
-186.0354638
-113.0711751
-73.47202697
-81.59884955
-142.3992054
-250.1426949
-382.4456603
-500.4998174
-561.4018028
-537.957441
-433.3115458
-279.3104028
-120.9045265
3.31779769
73.68753281
89.55417745
60.79126958
-1.168540376
-86.42167575
-182.1878731
-267.3297563
-315.9932865
-308.8326778
-245.8539698
-149.5171871
-53.41291612
16.02416048
52.49702129
69.39858319
87.06857272
116.2012004
149.1448572
164.2909165
141.2428351
75.78642712
-15.47607972
-103.8905758
-161.796817
-171.0030937
-126.5023964
-36.97296509
73.70606239
170.2391858
214.48225
179.1822308
59.52209367
-122.2939925
-322.4855846
-489.6608112
-582.6077183
-585.405654
-513.5686883
-405.8760913
-305.2010564
-239.0977135
-211.9777661
-213.2480699
-230.7111799
-257.5596632
-290.2624489
-323.2342357
-347.2055984
-352.0520555
-332.1104559
-291.0228942
-241.8237028
-201.0583702
-177.5514333
-166.0554257
-152.2493124
-126.3138477
-94.93747944
-78.32105899
-94.84877485
-142.3521989
-191.3747197
-196.2378979
-119.9746271
40.69199373
246.6567254
432.1983318
537.3658616
537.9590094
453.7975461
332.2473108
218.6599872
132.2291143
62.13509674
-16.69627343
-118.4988771
-230.5741778
-317.4028273
-341.8789534
-287.2013162
-164.263287
-2.94313516
164.6010476
313.8118225
425.6037431
477.3289162
441.8142534
300.9122532
64.5865472
-220.7579878
-484.0327996
-657.3158103
-703.1052758
-626.3296099
-466.9745786
-280.2851082
-115.9520613
-3.789948019
46.67139352
39.41569352
-16.44194448
-108.3867036
-216.1859481
-311.6563013
-367.4745118
-373.3202249
-345.7246811
-320.9997093
-332.9680752
-389.513246
-466.3852863
-522.1931346
-524.4268406
-468.5472423
-378.5477525
-290.3083135
-229.3983315
-199.7551278
-188.3855096
-180.3893502
-172.8189385
-175.5075313
-202.3498139
-258.9666631
-335.5442476
-410.1109114
-459.1537207
-468.8986216
-439.1893113
-378.2380861
-292.9510397
-185.4752357
-59.03492211
72.95080717
183.4443875
240.6591884
225.1669397
143.6927699
29.02294683
-74.80386575
-134.9852691
-145.2707785
-126.3555079
-113.0086481
-136.5387729
-210.4467979
-322.671921
-437.6749564
-511.2822364
-511.1374757
-432.545115
-300.5360871
-159.2257799
-56.03576265
-26.26220452
-82.20496305
-209.9266244
-375.319206
-536.1330991
-654.7666147
-706.1329107
-679.7275038
-578.3121927
-415.2289092
-210.9286904
8.37474589
213.3697494
377.0397807
482.9598625
529.3183301
524.2573012
476.0765655
385.9864878
250.3301663
71.05058666
-132.241256
-319.8647305
-443.3555592
-465.1524805
-376.5817017
-206.0707096
-13.68614894
128.5700133
165.5698943
82.77725361
-86.6498831
-277.6550326
-424.0535148
-486.9132748
-467.8811421
-400.9858185
-331.90534
-296.5560227
-309.4543074
-362.647542
-434.2696711
-501.1154967
-548.5985898
-570.8363839
-564.7320575
-524.5450464
-445.6746901
-333.5133969
-208.7899807
-101.7748377
-38.41879829
-25.05589885
-42.15092078
-47.71697543
8.797767672
167.0798626
434.2341013
771.6098571
1100.346604
1330.061101
1398.018458
1297.770142
1078.726456
815.1828468
565.2251836
346.7133766
146.9760476
-45.30581549
-213.251913
-313.5423122
-305.2159737
-183.8204185
6.542193986
192.6436386
307.8556633
320.0339116
236.0436734
89.4177848
-77.06492716
-222.3469834
-312.0899258
-321.5361907
-241.7503392
-85.75554929
113.1292951
311.8727843
472.3443592
571.7321106
604.4137569
577.7234196
505.6692172
405.1139991
294.0951359
191.6468982
115.5221288
76.3930249
71.03497239
82.96106668
91.27697064
83.35535359
60.18157058
32.63963316
12.90663481
8.269871937
20.62076898
48.18000425
85.71773781
125.2628793
159.0824114
184.9218083
208.6833062
238.0723649
269.9802182
284.3911821
252.3876745
156.8282247
10.14627748
-143.5241741
-244.6526153
-244.1999195
-126.4924558
80.17754479
310.6022393
488.9656911
565.1473381
540.6754217
464.8593057
401.0046514
384.4137236
402.7201635
409.3167901
362.046769
256.7834368
134.2126377
54.64506132
60.01254478
149.9023212
284.8517155
410.5813085
488.6914892
514.9220753
517.8542188
540.566138
615.2858312
744.4475478
894.3345532
1006.682971
1023.637832
914.8861968
690.3485946
395.3849908
93.68244874
-151.6472163
-293.3850808
-311.459125
-218.082977
-53.75012918
126.0530133
266.622308
328.0884217
294.4650477
178.0930911
16.67949902
-139.0950861
-245.4106483
-284.1458843
-268.7355739
-231.8385635
-202.0324147
-184.3248828
-158.3454116
-96.73469964
9.314038012
134.9063696
230.1054146
247.5059925
171.8454737
31.8123985
-112.4820846
-201.0444111
-204.9057134
-137.2680149
-38.79179815
52.72494028
123.3859356
182.2285883
243.5596624
309.7129791
365.5995816
385.2478263
345.3661872
237.9995265
78.08211066
-95.64086819
-226.52688
-255.297842
-142.2858
112.6461877
462.2177982
821.1208003
1090.09435
1188.316171
1083.200457
805.7752959
444.4468521
117.8330106
-67.15370869
-57.24866012
123.1124376
378.2221119
580.7990622
628.3560524
491.2982058
226.4144771
-52.7599462
-231.8157543
-249.1669237
-120.1167109
79.44227786
256.3308083
343.3676561
319.4681677
202.5492592
30.40160611
-155.9019852
-321.0178204
-441.4548865
-510.43204
-536.370341
-532.1114617
-503.5611576
-448.1852994
-364.147929
-257.8518176
-139.2129202
-11.24032984
134.8018431
309.9697393
510.0331286
703.5041504
836.4725097
857.7016153
746.850232
527.1049647
252.3508038
-20.60389037
-254.4736549
-437.9503616
-577.0561863
-682.1841416
-757.7745479
-796.7100717
-778.7357002
-675.517964
-467.4419415
-168.420844
158.3493534
411.0616846
486.9579217
328.6435905
-46.85126852
-546.9423332
-1029.492559
-1345.247765
-1388.521282
-1139.56235
-679.8135037
-164.278821
241.8930694
433.4046574
403.4989763
231.8012151
34.90013708
-91.43589032
-110.1650186
-49.17747545
22.76389458
37.39044629
-35.27020384
-174.2625249
-326.0629927
-441.0107393
-502.8779391
-532.8094054
-568.1825703
-632.7933999
-720.0758773
-799.4707968
-840.0695934
-829.9558816
-778.8925963
-706.3113352
-627.326667
-547.5965167
-464.1992114
-368.6660526
-251.3403735
-109.9807887
40.19016388
163.7150489
216.4076329
168.6821782
24.62906388
-174.9330612
-368.1371772
-494.0343086
-510.5481179
-405.1734888
-200.3400753
47.77471288
263.0043862
376.1690474
353.104174
208.0256697
-5.238458382
-215.9611096
-361.5256565
-405.4193119
-346.388607
-217.9786894
-77.81998255
13.21974298
15.77494367
-71.48390651
-216.3395096
-376.1722018
-524.1591101
-660.3367575
-801.2680454
-956.3978762
-1107.909919
-1209.55588
-1207.118659
-1064.426702
-779.5309234
-383.2552969
72.98298734