1663
57.61508579
-81.86791467
-267.1997766
-510.5364516
-779.6989765
-1016.325784
-1169.40245
-1221.951029
-1194.60666
-1126.790504
-1051.965394
-984.7808552
-924.7307847
-867.0043763
-808.92248
-748.6965903
-681.5887576
-599.7711123
-497.8215685
-380.2476324
-264.0671297
-171.389419
-115.1713412
-90.26689475
-80.37492547
-76.46641429
-89.09223252
-141.992089
-251.5206697
-407.3492487
-568.9335441
-683.4514553
-716.2909781
-672.5518421
-592.3712502
-523.7149165
-492.6970883
-489.89167
-479.1709045
-424.3882781
-320.0701183
-206.2854554
-152.8690169
-218.0866776
-408.8329881
-671.4495503
-919.1059149
-1075.300257
-1106.473211
-1029.097271
-892.8727896
-752.6564448
-645.1462654
-581.2087347
-554.0475635
-554.3454919
-580.5969457
-636.3660628
-715.8029964
-790.3595892
-812.511301
-739.8998773
-564.9844578
-328.2534338
-103.9430543
33.77391099
44.12364708
-65.5031118
-249.4704225
-450.8768754
-629.2248579
-772.6550047
-888.6433713
-981.9292475
-1037.963179
-1026.238468
-922.4565735
-733.1257471
-503.017405
-297.6642693
-170.6508579
-135.8386441
-161.9320793
-193.8544497
-188.9314718
-144.6531634
-98.45430926
-99.68396553
-175.05085
-312.5347516
-472.6262913
-615.2686171
-722.0861467
-800.6215943
-872.1850907
-954.0904468
-1045.357338
-1120.564028
-1136.190136
-1051.792693
-858.5880054
-597.1358126
-347.0347163
-189.2648828
-163.4169011
-246.8179173
-365.4532489
-426.3336154
-355.3993646
-129.5704219
206.9865074
552.8054553
787.240455
821.2264315
633.9470931
276.5286746
-154.8009217
-557.1309854
-851.8002549
-999.8179814
-1003.111345
-895.6002727
-728.5170091
-555.3546336
-420.5549735
-352.3017495
-358.0076646
-422.6534507
-512.112242
-583.7758162
-603.7495594
-563.5526355
-485.4227144
-410.7475635
-377.5512926
-399.8152649
-459.4643849
-515.1676753
-524.0473982
-464.7368103
-348.2145588
-210.3560451
-92.10970088
-20.11778984
1.728213527
-12.66294045
-44.75498231
-83.72902083
-130.1496673
-189.8889603
-265.2052755
-351.0646739
-438.3078076
-519.0391832
-589.4385261
-648.9088055
-697.2719301
-732.0357685
-747.1105512
-733.7650405
-683.5216267
-591.412488
-458.4889375
-294.5998541
-121.9824185
24.7611943
108.7830844
108.9950409
31.93433518
-94.49884608
-240.4946843
-389.5595185
-537.5785683
-679.0708168
-793.7810271
-845.3577585
-795.1582484
-624.7022889
-354.4748568
-46.77632656
212.789449
349.4573535
334.6382879
205.2391749
53.1703088
-15.78995495
65.72794812
293.6689878
597.3297108
875.7354246
1042.639603
1057.16099
929.1243086
703.4523602
437.421955
183.1955024
-20.11879756
-147.3830993
-186.3593492
-139.1272916
-26.25778012
112.1837234
225.5136854
270.0992639
226.6808933
108.4144271
-43.70426944
-176.9943309
-250.1551701
-253.5159182
-214.4898925
-182.1245891
-197.4269925
-267.77278
-363.2393687
-436.8597598
-452.3761189
-399.4705198
-289.5045639
-140.1342355
37.86875845
243.0562281
473.7471338
712.0979648
913.7958627
1015.629991
961.5684653
732.4692677
361.5900525
-70.19994215
-454.4610176
-684.5104446
-689.5097495
-463.9644489
-77.72153415
344.2642516
668.2390373
803.7310526
735.8257084
522.6988232
262.2104555
45.69007662
-78.50289436
-114.8365928
-102.037545
-80.73615374
-68.38093824
-55.36900518
-21.74511205
39.73194587
112.5102807
166.4049114
181.8006808
168.5095245
161.6270154
194.2296763
267.7683856
345.3496642
374.5507344
322.2666437
196.4355874
42.3272919
-80.38652609
-124.7351981
-75.2914174
47.57295205
199.1215793
332.0738913
416.8065763
448.2735907
438.2546055
402.488521
352.9415008
297.3988639
242.1567605
193.653567
157.6394612
136.594944
127.5133519
122.0116495
108.9660839
78.87547205
28.9979058
-33.01326502
-90.11322869
-122.4195007
-117.0057519
-77.25568157
-27.21365066
-5.418880922
-46.00223404
-154.5923402
-295.6221917
-404.4363661
-420.3761052
-319.7729504
-127.1469492
100.514364
303.1433935
441.6648187
506.0408692
509.2306832
475.6523848
430.8112699
393.5119531
370.0028406
351.9793596
322.206431
266.8272309
186.3344858
97.94553176
30.19004187
14.16610253
72.07379028
202.9390728
373.0917737
523.6238475
596.7525482
565.1956065
443.8140301
277.6898514
118.8271984
7.071819822
-37.89026285
-14.86600358
65.25339841
185.2000838
323.3059026
453.1586346
545.529598
575.9034851
534.6528875
431.6651325
291.1436339
141.6690256
9.13619678
-85.83068202
-129.0749527
-114.6686336
-47.12390835
55.99743668
162.1292235
226.8978439
207.2575418
82.05409085
-131.491565
-377.6640091
-581.7207806
-680.3563562
-648.0379978
-506.6346822
-315.0881048
-145.4912778
-56.7474403
-76.14785755
-194.1452008
-371.0417891
-550.4453071
-674.7742781
-699.7172923
-605.1539648
-400.8827273
-126.4435144
156.2245994
378.6852675
488.2706395
468.6647925
347.9371631
187.5394804
56.82749961
7.100862214
57.1519932
191.7453055
368.4354097
530.7873522
627.9036758
634.6199032
560.9518924
443.7114924
325.7493566
236.9303467
187.7139911
174.6962153
188.6844677
217.736831
246.5987578
258.8637183
243.4153001
199.4327691
134.4629218
57.38371073
-26.43294247
-112.8021308
-191.6181388
-241.8136796
-233.5284054
-138.5198816
53.69887038
320.7239553
603.5661334
822.1103534
905.6558318
822.1340623
589.2881585
263.6781626
-82.72224463
-384.1596535
-593.7587045
-690.3603927
-684.3167616
-618.2430409
-553.4177985
-541.6450023
-597.0540433
-685.2876681
-736.3370128
-674.4785178
-452.973926
-80.415692
372.7976118
793.743069
1067.222625
1120.410015
950.9911732
626.5037993
257.7437725
-41.09498952
-191.1765352
-173.6179449
-30.48896388
158.1931365
310.1333773
371.5614159
329.8546095
206.0655798
36.49111873
-143.1001144
-301.9384805
-410.4353085
-439.3229683
-368.8319628
-202.5151703
26.78541031
265.8969988
460.5337964
573.1730367
590.706581
521.6003525
389.1080183
226.5558771
74.14322625
-28.32204409
-55.41048099
-10.31075021
73.46148821
150.0981816
189.8955365
195.9659057
194.1186955
203.5978571
213.8386659
188.408645
95.43026145
-58.4821206
-218.5190265
-306.1861436
-262.3865864
-81.74577791
180.5530951
430.992339
577.430906
568.8770676
418.0889687
195.9094226
-1.941946724
-100.9056291
-82.68253395
10.89479432
107.8917834
150.774955
126.5216896
65.63491888
16.06751683
11.75414792
53.46204872
109.785456
135.8106932
98.22218933
-7.990975989
-159.4636132
-316.6734914
-438.2095238
-491.7255944
-462.0583654
-356.1360625
-201.3973225
-36.26533917
103.6157726
196.7121801
239.1158167
239.1804487
207.972131
153.9308481
86.69195322
25.05655233
-2.531070819
29.02649354
122.7559584
250.5254543
362.5983064
410.8692087
371.7934613
256.7529626
105.9402048
-29.95568395
-111.0035521
-122.2409569
-75.24910308
0.863725858
71.8765697
108.6558517
94.60751731
31.34423346
-59.44331295
-141.4823248
-177.2924144
-144.9961023
-50.94465453
68.80588079
160.6537284
175.9752054
95.55073767
-56.65067381
-221.3389249
-332.6150076
-351.5601171
-284.6403654
-177.4796455
-89.36924433
-62.75778686
-103.0084645
-178.4975583
-241.2633917
-257.1086047
-227.1713434
-186.8160937
-182.2797635
-240.4338103
-350.4286972
-467.0609086
-533.0022772
-507.8889918
-388.9751686
-211.4850377
-27.73003996
121.6421563
224.3127578
290.1525351
329.8657046
336.8551992
286.3010232
152.9480294
-61.84165348
-309.6408434
-497.2471774
-518.7422411
-307.1853278
120.315433
652.8542318
1122.644898
1372.50109
1319.797836
985.6835449
478.0720566
-58.70221608
-499.2636101
-771.2511491
-858.6885957
-784.9959741
-594.236794
-342.0827448
-94.56162227
76.44053253
111.3084311
-8.450642792
-241.7787381
-501.6417965
-695.8748438
-765.2960628
-695.1201556
-502.3650864
-217.0062029
129.5345673
503.8259951
860.4322615
1133.203366
1242.641319
1126.265734
779.7665743
280.8665939
-226.7950054
-587.1322532
-695.9690435
-543.7033297
-215.6870942
147.9859421
411.5465042
493.546772
388.4977327
156.5134209
-108.6138008
-316.4029244
-407.982086
-368.4232063
-222.1524946
-16.44971147
197.967862
381.1353352
509.1943369
572.0464503
567.9221545
500.4539009
380.4808384
229.1947124
77.09600317
-43.35027964
-108.4866297
-112.3628644
-69.25659256
-8.632948931
34.80869238
32.45454944
-27.33987348
-130.8012445
-237.6164044
-292.1736103
-246.2376873
-84.09673771
162.4163711
418.5850169
592.398692
611.4411123
454.1472048
161.344435
-175.990616
-448.661539
-571.3542373
-518.999344
-339.0747618
-131.046288
-1.929836118
-19.8794315
-187.0296096
-441.332389
-683.7384902
-817.9207343
-786.5661836
-591.1471289
-289.4185607
26.62608474
263.3032392
357.0871127
295.5666675
119.6090262
-95.5550277
-271.9871884
-356.968877
-334.4915726
-220.1072198
-48.02223313
140.9568472
307.4513274
418.7761922
453.8233063
408.2949591
298.4480158
160.0241869
39.64848729
-20.81757593
-1.42027849
85.97886485
201.4041576
293.1858512
318.7806447
259.8400034
126.6195535
-46.73829119
-213.1320763
-328.1218321
-366.4913093
-331.4155422
-249.4940419
-154.7797416
-73.54887561
-19.55094437
1.449115053
-11.87918415
-51.41004291
-91.37393114
-91.33634411
-17.22932317
131.1858731
308.9387642
443.6557457
472.6216946
373.5012222
169.731346
-87.18124975
-341.8252291
-551.7739187
-694.5793264
-768.1683181
-786.4477648
-770.1129755
-734.7963411
-681.7028623
-595.7081246
-452.6560567
-233.5124999
60.19558493
396.663839
716.1627101
948.0261332
1037.085946
966.9713089
768.326414
508.7147242
269.4510033
118.253839
87.42646713
165.4185419
303.9458812
436.9045436
504.5465778
474.9355298
354.1389509
180.5355784
6.174810866
-126.3745487
-201.4102176
-232.0991241
-243.8733972
-249.3354512
-234.3685164
-168.011989
-28.69429261
174.0524447
397.9860038
585.5176533
686.2247846
671.0523735
536.2162649
304.8098724
29.6879005
-212.1130089
-344.0734087
-326.0330185
-175.9542533
40.70616722
246.7816268
388.869822
451.2496308
445.7848885
391.5863456
301.0118825
179.2092179
33.16004013
-118.7350144
-244.8812736
-311.2086023
-301.1181989
-231.5957412
-150.2128859
-109.2708446
-131.8346022
-194.1248502
-239.3312937
-215.2056447
-109.9317128
37.67693943
158.920002
192.3829356
115.7484011
-43.44730807
-221.4156704
-347.3878757
-373.1511584
-289.3088061
-123.4706613
75.21935796
255.723492
379.3028848
423.7475328
381.3162313
258.5947617
81.68397479
-100.3974696
-225.5486188
-244.0936976
-147.5887582
18.01530531
166.806529
211.5921139
108.3398594
-118.2483124
-383.6737608
-582.8925581
-638.7817844
-535.2013812
-319.6927175
-77.11841272
110.1476252
195.390793
180.6408983
107.4505185
32.51684946
0.623436043
27.01718423
94.99132488
166.5496817
199.6768281
165.7665603
62.50012769
-81.93644928
-216.8169097
-287.9685589
-259.676802
-128.5992578
75.61997579
300.8613633
488.8577043
592.1728842
586.7125021
475.809101
286.2013721
60.21108807
-152.9018342
-307.7953299
-376.9223688
-361.6060958
-291.0953277
-206.8708863
-140.6600154
-100.2044082
-71.56639529
-34.32901154
23.07747828
98.05240909
177.3543442
241.0188245
262.9856151
214.8608277
79.97165699
-127.3495497
-353.2272421
-517.9309181
-547.7093809
-408.7467684
-125.9216557
223.2254735
536.0887707
720.3948956
723.1517374
546.0394261
245.4149128
-83.13191478
-332.9764632
-421.8141893
-325.9951377
-99.82867552
136.6240582
244.3693077
126.6760789
-227.4933325
-739.7927809
-1277.344196
-1705.659883
-1934.400298
-1939.398274
-1758.28088
-1467.677973
-1152.939327
-878.9572689
-670.2726499
-511.0224131
-369.3933166
-231.3767787
-114.0216085
-43.7140313
-20.4413635
-5.267931537
53.37897439
174.7940772
319.1887887
403.2638109
351.7751757
150.1463934
-139.7147131
-409.7804479
-558.7882116
-536.1703963
-359.9590427
-106.0734744
125.7105002
255.3171731
254.4708063
150.8031918
4.222621014
-127.6359659
-213.9997877
-253.9297265
-260.4390296
-239.753934
-182.0921295
-71.74180788
90.78634308
272.7203498
415.0474365
461.0540774
389.9361666
231.9627935
53.32663452
-80.18493932
-137.496046
-134.3708671
-118.8338179
-140.4862063
-220.7767377
-339.2597764
-442.5896534
-471.3113717
-390.5008615
-208.9448386
22.74967295
234.6528921
369.0678046
404.2001352
358.2984105
274.5126428
196.5752182
148.5577646
128.0089276
113.2102321
77.80502361
4.417059443
-107.5628099
-240.1893667
-359.521842
-422.9272009
-393.3125517
-258.4759109
-45.70348229
181.0177068
345.1872506
392.7881317
318.5845556
168.044645
13.45017545
-81.90251145
-91.27628459
-30.52158516
56.73040038
123.4757899
140.788431
108.4392843
52.2600661
10.64598501
16.43881233
81.61715249
190.4804618
304.1431801
375.7950348
371.4992706
286.9239273
150.6069632
10.71219395
-88.53190035
-127.8995304
-119.8661256
-98.14127309
-97.98493223
-138.9848568
-217.1051946
-306.2662694
-367.450008
-363.6226663
-276.915191
-120.5518923
62.64781372
217.1150551
299.1722938
296.4985712
231.9770053
150.5521024
97.48617591
99.52428737
155.2930169
234.9661237
288.8229202
266.2536385
142.0297219
-63.79411457
-288.3422459
-452.8857917
-498.644461
-411.5786179
-226.2740834
-10.90358239
158.3180956
223.0583929
160.1311266
-14.79360059
-255.557198
-500.297335
-687.6010164
-771.1566558
-730.3811096
-574.2615363
-337.3753318
-70.3140866
171.5934857
339.3275497
401.5235865
354.4330254
224.2361423
57.01134726
-99.9663699
-215.7116042
-282.9692969
-312.619368
-319.691741
-311.7196549
-288.7427583
-253.8600403
-222.5327073
-219.0124631
-260.3948983
-341.5707769
-434.9299663
-506.0656214
-533.1760965
-515.9596031
-469.8561554
-412.7677895
-354.2442881
-291.9694031
-214.4243719
-106.8604033
40.72176278
224.2907685
418.7907951
580.1427656
660.2706397
629.9588773
495.8113369
298.9061773
95.58287021
-65.61547658
-156.4726164
-169.2821266
-112.9455505
-10.84732298
101.6550185
184.657276
205.9368343
152.7263644
37.28472951
-105.9811596
-230.6563268
-292.7491299
-264.9258251
-145.5872708
39.96100955
246.2685823
421.4101768
524.8988484
542.9423846
491.5984386
404.0279073
309.7420571
220.0448032
128.5857544
25.49400658
-84.08352298
-169.4447706
-181.7436398
-78.99722877
144.9562148
446.6962914
745.8161756
958.3946358
1032.205018
964.0061297
792.0902752
572.8903832
357.1483479
176.5907529
43.46751486
-40.6616463
-73.60599124
-46.44736529
52.15958423
222.5509433
440.0231042
652.0197236
793.2356055
813.0831088
699.6311745
485.1848459
230.7858936
0.143441354
-161.5386005
-233.847405
-213.9002879
-105.6301757
84.27775235
340.7812162
629.9992515
893.2917114
1055.669589
1051.462854
856.1607834
503.7138569
76.49745615
-325.0757633
-614.7376494
-741.0885763
-695.039285
-507.3092158
-238.1041018
39.71379362
260.3603687
382.0142254
396.006616
326.0010132
216.9947552
117.0367412
58.78121354
49.39273558
73.25768829
105.1110305
125.9366413
132.8960916
137.9987196
156.737132
194.2779361
238.9519616
268.1449114
262.9286819
221.6874369
163.1405871
114.6429754
91.52944117
82.75950417
56.36887178
-17.27762717
-141.4480937
-285.4833095
-398.6407671
-436.8837159
-387.2205199
-275.8604164
-155.9186129
-82.15139084
-86.14965245
-163.224142
-276.3504973
-375.7782609
-424.8151632
-416.8731195
-373.2003726
-324.0475926
-287.8447122
-263.4736329
-239.3343733
-208.8077139
-177.3985216
-156.2694809
-149.948194
-149.6550451
-136.5974567
-91.38454129
-3.882781301
120.30462
260.0425202
387.1361947
478.1568514
520.4000305
509.2042089
444.2230463
332.2318957
194.0024055
65.90956473
-10.0951221
-5.642737697
76.68477842
200.6637126
313.4595606
374.1241548
376.5353114
352.1609284
349.8060091
403.6478784
509.7612773
628.082409
709.7577706
729.8490194
700.37527
655.170335
621.3929137
601.1326565
574.5304294
517.5403924
419.3981742
289.2886384
150.8002043
30.28451147
-52.19706182
-85.20477382
-64.922674
3.962373976
105.4497365
211.783962
288.7424602
306.6184111
253.11644
140.3557183
-1.203006915
-139.4186661
-255.0475571
-343.8860416
-408.4764178
-449.2227546
-462.0479489
-442.9857167
-395.475391
-334.0474461
-279.3935462
-246.113696
-231.7805712
-216.6813557
-175.8525389
-95.67572855
15.98809057
133.1677322
227.3360305
284.6875597
311.7159579
324.7982849
333.4766377
331.2409296
299.7765357
223.1159243
102.6630995
-37.23906809
-158.0935903
-223.9747006
-213.2439557
-119.0446558
54.69565812
291.3273507
553.4977606
781.1360079
906.3335569
881.5768071
704.4727862
422.7032812
115.708898
-136.9970666
-285.1585938
-321.5181122
-275.4882973
-193.2657575
-117.3807537
-76.21574532
-84.65406071
-147.8949403
-259.9103921
-397.531536
-520.3339784
-583.6231689
-559.2576347
-450.4376501
-290.2753911
-125.5409566
3.679822608
76.84446515
93.29572124
63.41195194
-1.022472116
-89.71628512
-189.2311788
-277.8307929
-328.4294532
-320.9289074
-255.462322
-155.3001416
-55.33435201
16.87710703
54.77808818
72.3711535
90.73896948
121.0423685
155.2955421
171.042975
147.0347872
79.00178145
-15.88246309
-107.8504532
-168.0667429
-177.7040571
-131.3278195
-38.26683128
76.84134224
177.203276
223.2663023
186.5609016
62.08900484
-126.9983192
-335.1766494
-509.0323138
-605.6771171
-608.608601
-533.8845102
-421.877865
-317.2231924
-248.4314405
-220.2130117
-221.5591581
-239.7250355
-267.647271
-301.6512153
-335.9538155
-360.8676552
-365.8966542
-345.2057953
-302.444629
-251.3069369
-208.8944509
-184.4551992
-172.5220481
-158.0939177
-131.1846776
-98.53316479
-81.26992994
-98.43023407
-147.8402923
-198.817253
-203.8549331
-124.5675383
42.47664572
256.6781083
449.6269102
559.0283517
559.6441498
472.1270917
345.7561011
227.59471
137.7225967
64.79557428
-17.1852676
-123.0432815
-239.5668728
-329.8693773
-355.3632571
-298.4808156
-170.6472375
-2.854263393
171.3517275
326.5483201
442.8081746
496.5833721
459.671044
313.1507359
67.33475053
-229.391655
-503.1565453
-683.369307
-731.0114182
-651.1353926
-485.3765956
-291.3287388
-120.3550549
-3.734620466
48.778089
41.23278867
-16.90819214
-112.4908432
-224.6356774
-323.9023294
-381.9495935
-388.045017
-359.3481583
-333.650464
-346.0397799
-404.8564148
-484.8279899
-542.866577
-545.1623791
-487.0366594
-393.4685776
-301.6427531
-238.3276381
-207.55883
-195.684958
-187.4387608
-179.5259362
-182.3250878
-210.2898671
-269.1304218
-348.740942
-426.2806193
-477.2801938
-487.384718
-456.5395358
-393.1469149
-304.4389387
-192.7033939
-61.18268589
76.0982609
190.9910196
250.4690033
234.3504709
149.5902432
30.38810389
-77.60424752
-140.1994299
-150.8870359
-131.2099873
-117.3003445
-141.785597
-218.698484
-335.3641019
-454.9555851
-531.4790256
-531.3579056
-449.6574973
-312.3281756
-165.3676217
-58.07429414
-27.10264979
-85.27618423
-218.1572083
-390.1261497
-557.3165967
-680.7161296
-734.1542125
-706.6688755
-601.2264146
-431.5896458
-219.1647669
8.908798396
222.0779019
392.2973497
502.4600141
550.6479904
545.3834811
495.2746825
401.6285391
260.5365589
74.09144058
-137.318022
-332.4327945
-460.8649051
-483.5587047
-391.4582243
-214.1260079
-14.04538853
133.9710794
172.3944389
86.27060228
-89.89266778
-288.5683073
-440.7763759
-506.1636278
-486.3590925
-416.8067591
-344.9320141
-308.1944967
-321.5965046
-376.9090777
-451.3803799
-520.9501313
-570.2860467
-593.4498741
-587.0838633
-545.304303
-463.2741465
-346.6327236
-216.9030377
-105.6952519
-39.7755535
-25.8778081
-43.58902
-49.40910579
9.363684602
173.9480982
451.7897329
802.6119603
1144.488331
1383.362448
1454.027044
1349.815662
1122.019744
847.9573367
587.9809079
360.7617325
153.0545558
-46.88905955
-221.576208
-325.8640276
-317.2078591
-190.9544309
7.033158442
200.5109031
320.3500705
333.0094873
245.6855715
93.16089314
-79.92581906
-231.0173741
-324.335728
-334.1546669
-251.2212947
-88.9710205
117.8684631
324.5310854
491.414038
594.7642513
628.7638009
600.9906261
526.0980011
421.5115426
306.025315
199.482975
120.3722745
79.6358692
74.072353
86.45014631
95.14369423
86.87599664
62.76713272
34.17102585
13.63532455
8.780279847
21.64852514
50.28518122
89.33707001
130.4934185
165.6328928
192.498342
217.2283491
247.7583296
280.9889625
295.949301
262.673202
163.3075958
10.78092833
-149.0147514
-254.1985556
-253.749468
-131.3328942
83.5820334
323.2107175
508.7022908
587.9122375
562.450082
483.654493
417.2134911
399.99922
418.9573765
425.8819727
376.7130131
267.2198167
139.7632366
57.00729652
62.57911418
156.094268
296.3860811
427.1909654
508.4132095
535.6672526
538.7830273
562.3666199
640.0617648
774.3602179
930.2648337
1047.067827
1064.738946
951.6023167
718.1017823
411.3845309
97.62832871
-157.5009393
-304.8953727
-323.6873014
-226.6219717
-55.70679411
131.276449
277.5008658
341.3904331
306.4010131
185.4015496
17.55503076
-144.4495196
-255.0296269
-295.2916591
-279.2256671
-240.8830582
-209.9053824
-191.4554029
-164.4706622
-100.4090709
9.83856053
140.4624555
239.4856085
257.6258082
178.9009203
33.31144399
-116.7539658
-208.8979582
-212.8742647
-142.5654724
-40.14658167
55.00981375
128.5158463
189.7077637
253.4532033
322.2657334
380.3911041
400.8312321
359.3453408
247.7047021
81.38573445
-99.26065651
-235.3404444
-265.2612688
-147.7565968
117.3011115
480.8462168
854.1194787
1133.843446
1235.981586
1126.662109
838.1277055
462.4060432
122.7673797
-69.62745719
-59.31226114
128.1953989
393.5277502
604.1898481
653.6491209
511.1570389
235.6492721
-54.67962681
-240.8676555
-258.9276967
-124.7090249
82.8146604
266.7487686
357.2865591
332.4136484
210.8341389
31.81314305
-161.9202562
-333.6259475
-458.8878298
-530.6444481
-557.6018221
-553.1900192
-523.474967
-465.8543801
-378.5181646
-267.9512654
-144.5983969
-11.50776486
140.3649351
322.5366361
530.6608323
731.779605
870.0696676
892.1367977
776.8554415
548.3461258
262.6122895
-21.19947193
-264.4415608
-455.2584215
-599.9184607
-709.2129579
-787.8022888
-828.3184077
-809.6396395
-702.3044717
-485.9468671
-174.9756042
164.8858966
427.6622253
506.6111886
341.9492532
-48.51118126
-568.6151777
-1070.398448
-1398.767935
-1443.757973
-1184.892552
-706.7672134
-170.6512753
251.7351977
450.9280745
419.7761301
241.2397624
36.48626773
-94.89038228
-114.3621612
-50.93326977
23.8510262
39.07683431
-36.48119948
-181.0133
-338.8912735
-458.4685296
-522.7736935
-553.849701
-590.628908
-657.8827572
-748.6076738
-831.207893
-873.435026
-862.918897
-809.843142
-734.3136991
-652.1876176
-569.2562181
-482.5137886
-383.1761915
-261.2112343
-114.2064248
42.00915312
170.4335584
225.250858
175.5971677
25.82806733
-181.7288789
-382.6453861
-513.5493052
-530.7291947
-421.1475502
-208.1444526
49.8448627
273.671547
391.3554299
367.3901963
216.5101022
-5.23043979
-224.3904844
-375.7903399
-421.4213302
-360.012001
-226.4975984
-80.73586988
13.940377
16.61262114
-74.15625108
-224.7796195
-390.982907
-544.8957305
-686.5239773
-833.0998203
-994.420786
-1151.923248
-1257.687289
-1255.142598
-1106.750005
-810.4954768
-398.4001322
76.08002538
